-0.06005859374999999
-0.061889648437499986
-0.06427001953125
-0.06738281249999999
-0.06610107421875
-0.0626220703125
-0.05859375
-0.05603027343749999
-0.05383300781249999
-0.04797363281249999
-0.04870605468749999
-0.05181884765625
-0.05255126953124999
-0.05346679687499999
-0.04852294921875
-0.04614257812499999
-0.05511474609374999
-0.06298828125
-0.0684814453125
-0.06701660156249999
-0.05731201171874999
-0.05255126953124999
-0.05603027343749999
-0.05364990234375
-0.057861328125
-0.05621337890624999
-0.0545654296875
-0.05145263671875
-0.0457763671875
-0.0439453125
-0.04595947265625
-0.04614257812499999
-0.04541015625
-0.040283203125
-0.04101562499999999
-0.0439453125
-0.04595947265625
-0.04486083984375
-0.04010009765624999
-0.03643798828125
-0.034423828125
-0.03863525390625
-0.0450439453125
-0.04833984374999999
-0.04541015625
-0.04101562499999999
-0.03955078124999999
-0.03515625
-0.03021240234375
-0.03424072265625
-0.0439453125
-0.04833984374999999
-0.0472412109375
-0.04138183593749999
-0.0347900390625
-0.03680419921875
-0.034423828125
-0.03076171875
-0.02838134765625
-0.029663085937500003
-0.026916503906249997
-0.026733398437499997
-0.0274658203125
-0.028198242187499997
-0.027099609375
-0.027832031249999997
-0.027099609375
-0.02490234375
-0.016845703124999997
-0.012451171875
-0.01263427734375
-0.013916015624999998
-0.022155761718749997
-0.030029296874999997
-0.0274658203125
-0.02197265625
-0.015197753906249998
-0.012268066406249998
-0.0054931640625
-0.0014648437499999998
0.0012817382812499998
0.0047607421875
-0.002197265625
-0.006958007812499999
-0.00732421875
-0.01263427734375
-0.015014648437499998
-0.015014648437499998
-0.0142822265625
-0.0106201171875
-0.0032958984375
-0.00384521484375
-0.0135498046875
-0.01318359375
-0.010253906249999998
-0.012268066406249998
-0.0091552734375
-0.0010986328125
-0.0054931640625
-0.009704589843749998
-0.005126953124999999
-0.0032958984375
-0.00677490234375
-0.0128173828125
-0.0135498046875
-0.011718749999999998
-0.0113525390625
-0.00567626953125
-0.00036621093749999995
0.0018310546875
0.0007324218749999999
0.007507324218749999
0.01373291015625
0.01116943359375
0.006591796875
0.00384521484375
-0.0029296874999999996
-0.004943847656249999
-0.00531005859375
0.0
-0.002197265625
-0.00567626953125
-0.007507324218749999
-0.00677490234375
-0.0062255859375
-0.0025634765624999996
-0.00567626953125
-0.004028320312499999
0.0014648437499999998
0.00238037109375
0.002197265625
0.0025634765624999996
0.008422851562499998
0.0142822265625
0.0142822265625
0.012268066406249998
0.006042480468749999
0.007507324218749999
0.00933837890625
0.0146484375
0.016113281249999997
0.027099609375
0.03460693359375
0.0439453125
0.0498046875
0.052734375
0.05072021484375
0.052734375
0.05255126953124999
0.0450439453125
0.0380859375
0.02490234375
0.01739501953125
0.015380859375
0.01446533203125
0.013366699218749998
0.015380859375
0.01263427734375
0.00860595703125
0.006958007812499999
0.00732421875
0.008056640624999998
0.0146484375
0.020690917968749997
0.0216064453125
0.019592285156249997
0.01666259765625
0.01318359375
0.005126953124999999
0.00567626953125
0.0054931640625
0.005859374999999999
0.00457763671875
0.0062255859375
0.008422851562499998
0.008422851562499998
0.0087890625
0.00640869140625
0.0087890625
0.01373291015625
0.015014648437499998
0.014099121093749998
0.011535644531249998
0.006591796875
0.0032958984375
-0.002197265625
-0.01629638671875
-0.0311279296875
-0.0355224609375
-0.029663085937500003
-0.0146484375
0.011718749999999998
0.0494384765625
0.09246826171875
0.1314697265625
0.186767578125
0.26275634765625
0.3394775390625
0.41455078125
0.47680664062499994
0.53466796875
0.5885009765625
0.6251220703125
0.6185302734375
0.547119140625
0.4083251953125
0.23309326171874997
0.076904296875
-0.04431152343749999
-0.1259765625
-0.148681640625
-0.15032958984374997
-0.1446533203125
-0.135498046875
-0.1278076171875
-0.1171875
-0.09136962890625
-0.06280517578125
-0.04595947265625
-0.0472412109375
-0.0509033203125
-0.03900146484375
-0.03643798828125
-0.03881835937499999
-0.04541015625
-0.047607421875
-0.044677734375
-0.04174804687499999
-0.05108642578125
-0.05419921875
-0.052734375
-0.0439453125
-0.03662109375
-0.03881835937499999
-0.040283203125
-0.03680419921875
-0.030029296874999997
-0.02728271484375
-0.014831542968750002
-0.00274658203125
-0.00384521484375
-0.019409179687499997
-0.037353515625
-0.0399169921875
-0.025634765625
-0.0186767578125
-0.024169921874999997
-0.028564453125
-0.031494140625
-0.02838134765625
-0.03186035156249999
-0.03369140624999999
-0.03424072265625
-0.02490234375
-0.010253906249999998
-0.0014648437499999998
-0.002197265625
-0.0047607421875
-0.00457763671875
-0.0029296874999999996
-0.00018310546874999997
0.00054931640625
0.0018310546875
0.0018310546875
-0.0012817382812499998
0.016845703124999997
0.03753662109375
0.03698730468749999
0.027099609375
0.01904296875
0.011535644531249998
0.012451171875
0.019775390624999997
0.028198242187499997
0.03240966796875
0.02947998046875
0.03222656249999999
0.0325927734375
0.0142822265625
0.0087890625
0.015930175781249997
0.03057861328125
0.04064941406249999
0.0472412109375
0.05438232421874999
0.0457763671875
0.0498046875
0.052001953125
0.06683349609375
0.0728759765625
0.0750732421875
0.07159423828125
0.0589599609375
0.04541015625
0.0384521484375
0.0498046875
0.06390380859375
0.06536865234375
0.062255859375
0.05932617187500001
0.06079101562499999
0.061935424804687486
0.04925537109374999
0.03680419921875
0.04650878906249999
0.0743408203125
0.09246826171875
0.113525390625
0.11279296874999999
0.09759521484375
0.076171875
0.06500244140625
0.06079101562499999
0.061889648437499986
0.05566406249999999
0.0633544921875
0.07763671874999999
0.07965087890625
0.07177734375
0.05950927734375
0.06738281249999999
0.07177734375
0.0692138671875
0.061889648437499986
0.065185546875
0.0772705078125
0.08038330078124999
0.06738281249999999
0.05877685546875
0.06372070312499999
0.06353759765625
0.05731201171874999
0.05163574218749999
0.04779052734374999
0.04248046875
0.040283203125
0.0428466796875
0.03900146484375
0.04339599609375
0.044677734375
0.0289306640625
0.013916015624999998
0.005126953124999999
-0.004211425781249999
-0.01300048828125
-0.025634765625
-0.03515625
-0.05072021484375
-0.05072021484375
-0.0494384765625
-0.05383300781249999
-0.066650390625
-0.07653808593749999
-0.08001708984375
-0.0699462890625
-0.06243896484374999
-0.06445312499999999
-0.08001708984375
-0.09558105468749999
-0.10491943359374999
-0.10601806640624999
-0.1014404296875
-0.099609375
-0.09667968749999999
-0.09429931640625
-0.0908203125
-0.09667968749999999
-0.0970458984375
-0.09741210937499999
-0.09356689453125
-0.099609375
-0.09796142578125
-0.0992431640625
-0.09814453124999999
-0.0970458984375
-0.09100341796874999
-0.091461181640625
-0.0933837890625
-0.09045410156249999
-0.08953857421874999
-0.08074951171875
-0.0867919921875
-0.0845947265625
-0.07635498046875
-0.06829833984374999
-0.06591796875
-0.06463623046875
-0.06701660156249999
-0.07049560546875
-0.076171875
-0.0736083984375
-0.06811523437499999
-0.06683349609375
-0.06445312499999999
-0.054931640625
-0.05767822265625
-0.05731201171874999
-0.05474853515624999
-0.06207275390625001
-0.06811523437499999
-0.0684814453125
-0.07012939453124999
-0.07598876953125
-0.0772705078125
-0.0721435546875
-0.06939697265625
-0.06591796875
-0.06170654296874999
-0.05822753906249999
-0.0692138671875
-0.07745361328125
-0.0845947265625
-0.076904296875
-0.0732421875
-0.06793212890625
-0.07177734375
-0.07049560546875
-0.04541015625
-0.04229736328125
-0.04833984374999999
-0.06646728515625
-0.07012939453124999
-0.0703125
-0.06573486328125
-0.06591796875
-0.06628417968749999
-0.06939697265625
-0.06573486328125
-0.0750274658203125
-0.0736083984375
-0.07086181640624999
-0.07012939453124999
-0.0677490234375
-0.07305908203124999
-0.0736083984375
-0.07763671874999999
-0.072509765625
-0.0736083984375
-0.07781982421875
-0.0772705078125
-0.07836914062499999
-0.0728759765625
-0.0692138671875
-0.061889648437499986
-0.0531005859375
-0.05401611328125
-0.0501708984375
-0.0472412109375
-0.03863525390625
-0.032958984375
-0.0501708984375
-0.06280517578125
-0.0728759765625
-0.06829833984374999
-0.06756591796875
-0.07562255859374999
-0.07910156249999999
-0.08129882812499999
-0.0750732421875
-0.06280517578125
-0.050537109375
-0.04193115234375
-0.0380859375
-0.026916503906249997
-0.016845703124999997
-0.024353027343749997
-0.032958984375
-0.04302978515625
-0.06756591796875
-0.071044921875
-0.06500244140625
-0.0703125
-0.06628417968749999
-0.0640869140625
-0.06317138671875
-0.0611572265625
-0.0439453125
-0.0347900390625
-0.04193115234375
-0.04833984374999999
-0.04669189453125
-0.05181884765625
-0.0501708984375
-0.04302978515625
-0.03717041015625
-0.03607177734375
-0.03955078124999999
-0.0347900390625
-0.0311279296875
-0.01263427734375
0.006958007812499999
-0.0007324218749999999
-0.015930175781249997
-0.024536132812499997
-0.03570556640625
-0.04541015625
-0.0362548828125
-0.037353515625
-0.03662109375
-0.028747558593750003
-0.018310546875
-0.013366699218749998
-0.018310546875
-0.019409179687499997
-0.0223388671875
-0.02471923828125
-0.021240234375
-0.020874023437499997
-0.004943847656249999
0.002197265625
-0.010986328125
-0.030395507812499997
-0.0428466796875
-0.04833984374999999
-0.04614257812499999
-0.04248046875
-0.04064941406249999
-0.0355224609375
-0.028198242187499997
-0.0289306640625
-0.030029296874999997
-0.028015136718749997
-0.020874023437499997
-0.020507812499999997
-0.023437499999999997
-0.0128173828125
-0.0018310546875
0.0025634765624999996
0.0020141601562499996
0.00018310546874999997
-0.00054931640625
0.0014648437499999998
0.00457763671875
0.002197265625
0.0
-0.0014648437499999998
-0.00531005859375
0.0032958984375
0.0087890625
0.0146484375
0.01666259765625
0.019592285156249997
0.02197265625
0.0223388671875
0.02178955078125
0.02490234375
0.02471923828125
0.020507812499999997
0.0223388671875
0.025817871093749997
0.02728271484375
0.024169921874999997
0.009704589843749998
0.00897216796875
0.01190185546875
0.010253906249999998
0.00897216796875
0.0142822265625
0.01812744140625
0.02288818359375
0.023437499999999997
0.020324707031249997
0.0135498046875
0.00677490234375
-0.00164794921875
0.005859374999999999
0.018310546875
0.015930175781249997
0.0128173828125
0.0076904296875
0.0179443359375
0.027648925781249997
0.0157470703125
0.012084960937499998
0.0128173828125
0.012268066406249998
0.015014648437499998
0.005859374999999999
-0.0018310546875
0.00732421875
0.01007080078125
0.0018310546875
0.0034790039062499996
0.012084960937499998
0.02197265625
0.029663085937500003
0.05474853515624999
0.05712890625
0.03790283203124999
0.0399169921875
0.0523681640625
0.07049560546875
0.067840576171875
0.066650390625
0.076171875
0.08276367187499999
0.0772705078125
0.06976318359375
0.0684814453125
0.0703125
0.07836914062499999
0.07836914062499999
0.08697509765625
0.08111572265625
0.0721435546875
0.0611572265625
0.0380859375
0.0010986328125
-0.013916015624999998
-0.005859374999999999
0.0014648437499999998
0.0007324218749999999
-0.0025634765624999996
-0.005859374999999999
-0.00732421875
-0.008056640624999998
-0.007507324218749999
-0.0029296874999999996
-0.00164794921875
0.00439453125
0.00439453125
0.0020141601562499996
0.005859374999999999
0.010986328125
0.007507324218749999
0.01007080078125
0.0091552734375
-0.0032958984375
0.00164794921875
0.006042480468749999
0.0106201171875
0.01263427734375
0.0157470703125
0.0142822265625
0.009704589843749998
0.0007324218749999999
-0.006042480468749999
-0.015380859375
-0.02178955078125
-0.02178955078125
-0.01318359375
0.006591796875
0.030029296874999997
0.06079101562499999
0.09374999999999999
0.1307373046875
0.18951416015625
0.2647705078125
0.3424072265625
0.42022705078125
0.47955322265624994
0.52734375
0.57421875
0.6097412109375
0.620361328125
0.556640625
0.40869140625
0.2069091796875
0.0545654296875
-0.0428466796875
-0.11480712890625
-0.13128662109375
-0.1376953125
-0.125244140625
-0.1083984375
-0.09869384765624999
-0.10546875
-0.10125732421874999
-0.0732421875
-0.0531005859375
-0.054931640625
-0.06884765625
-0.05932617187500001
-0.032958984375
-0.01812744140625
-0.0347900390625
-0.04815673828125
-0.04449462890625
-0.03717041015625
-0.02618408203125
-0.02288818359375
-0.01995849609375
-0.01373291015625
-0.008056640624999998
-0.014099121093749998
-0.02178955078125
-0.019592285156249997
-0.010253906249999998
-0.004028320312499999
-0.0034790039062499996
0.0018310546875
0.004028320312499999
0.0128173828125
0.016113281249999997
0.012084960937499998
-0.004943847656249999
-0.015014648437499998
-0.0157470703125
-0.015930175781249997
-0.0164794921875
-0.010437011718749998
-0.005126953124999999
-0.00274658203125
0.0007324218749999999
0.0032958984375
0.0076904296875
0.004211425781249999
0.008422851562499998
0.018493652343749997
0.020507812499999997
0.03387451171875
0.03167724609375
0.028747558593750003
0.028198242187499997
0.03204345703125
0.0333251953125
0.03973388671874999
0.04431152343749999
0.03643798828125
0.035888671875
0.034423828125
0.03662109375
0.0501708984375
0.05419921875
0.04833984374999999
0.04705810546874999
0.04669189453125
0.0439453125
0.0450439453125
0.04193115234375
0.04083251953124999
0.04046630859374999
0.0421142578125
0.0523681640625
0.0684814453125
0.07470703125
0.0699462890625
0.0611572265625
0.0615234375
0.0615234375
0.06390380859375
0.066650390625
0.06555175781249999
0.05822753906249999
0.05822753906249999
0.06738281249999999
0.0706787109375
0.0648193359375
0.05603027343749999
0.04797363281249999
0.05712890625
0.0736083984375
0.08404541015624999
0.08038330078124999
0.07855224609375
0.08514404296875
0.08697509765625
0.0882568359375
0.0845947265625
0.09100341796874999
0.09503173828125
0.10052490234374999
0.10638427734374999
0.11224365234375
0.11187744140625
0.10876464843749999
0.11480712890625
0.11682128906250001
0.1175537109375
0.117919921875
0.11828613281249999
0.11828613281249999
0.11315917968749999
0.1109619140625
0.10546875
0.11279296874999999
0.11279296874999999
0.11407470703125
0.11975097656249999
0.1080322265625
0.0999755859375
0.0970458984375
0.10601806640624999
0.11682128906250001
0.11224365234375
0.09942626953124999
0.087158203125
0.07635498046875
0.07562255859374999
0.071044921875
0.06573486328125
0.05346679687499999
0.034423828125
0.030029296874999997
0.027099609375
0.0355224609375
0.0216064453125
-0.0010986328125
-0.002197265625
-0.00567626953125
-0.009887695312499998
-0.0201416015625
-0.0355224609375
-0.0498046875
-0.0596923828125
-0.05841064453125001
-0.04925537109374999
-0.04687499999999999
-0.04614257812499999
-0.04248046875
-0.03881835937499999
-0.052001953125
-0.05511474609374999
-0.06610107421875
-0.06372070312499999
-0.0531005859375
-0.04138183593749999
-0.03918457031249999
-0.04779052734374999
-0.05749511718750001
-0.0531005859375
-0.0472412109375
-0.0355224609375
-0.031494140625
-0.04797363281249999
-0.06939697265625
-0.0703125
-0.0633544921875
-0.05914306640624999
-0.04742431640624999
-0.04248046875
-0.05255126953124999
-0.04907226562499999
-0.0545654296875
-0.0604248046875
-0.065185546875
-0.0648193359375
-0.0684814453125
-0.06536865234375
-0.05877685546875
-0.05657958984374999
-0.05657958984374999
-0.06079101562499999
-0.05328369140625
-0.05511474609374999
-0.054931640625
-0.05566406249999999
-0.05712890625
-0.05694580078124999
-0.05914306640624999
-0.05621337890624999
-0.052001953125
-0.0384521484375
-0.037353515625
-0.05126953125
-0.052001953125
-0.057861328125
-0.06903076171875
-0.06500244140625
-0.05914306640624999
-0.0567626953125
-0.05932617187500001
-0.066650390625
-0.06207275390625001
-0.06555175781249999
-0.06646728515625
-0.0703125
-0.05950927734375
-0.05163574218749999
-0.05163574218749999
-0.047607421875
-0.04193115234375
-0.03973388671874999
-0.04339599609375
-0.04962158203125
-0.05364990234375
-0.05584716796875
-0.05859375
-0.0615234375
-0.0596923828125
-0.05328369140625
-0.05328369140625
-0.05712890625
-0.05474853515624999
-0.04797363281249999
-0.04687499999999999
-0.05163574218749999
-0.05987548828124999
-0.06024169921875
-0.057861328125
-0.06170654296874999
-0.06445312499999999
-0.05621337890624999
-0.04779052734374999
-0.04870605468749999
-0.05035400390625
-0.05419921875
-0.061889648437499986
-0.0589599609375
-0.05914306640624999
-0.0633544921875
-0.06280517578125
-0.06793212890625
-0.06701660156249999
-0.07305908203124999
-0.0703125
-0.05731201171874999
-0.0509033203125
-0.04962158203125
-0.05529785156249999
-0.05841064453125001
-0.05181884765625
-0.04833984374999999
-0.05529785156249999
-0.06298828125
-0.05914306640624999
-0.04852294921875
-0.0439453125
-0.04101562499999999
-0.0380859375
-0.03186035156249999
-0.0289306640625
-0.027832031249999997
-0.02105712890625
-0.01885986328125
-0.022705078125
-0.0311279296875
-0.0289306640625
-0.029296875
-0.0260009765625
-0.0223388671875
-0.020507812499999997
-0.023254394531249997
-0.0311279296875
-0.03424072265625
-0.01922607421875
-0.02618408203125
-0.03186035156249999
-0.029296875
-0.026733398437499997
-0.0274658203125
-0.03515625
-0.03533935546875
-0.0311279296875
-0.024169921874999997
-0.01904296875
-0.0179443359375
-0.0223388671875
-0.006591796875
0.0034790039062499996
0.00036621093749999995
-0.0014648437499999998
-0.0012817382812499998
-0.0106201171875
-0.0113525390625
-0.02142333984375
-0.023437499999999997
-0.011718749999999998
-0.00054931640625
0.0091552734375
0.01812744140625
0.0091552734375
-0.0054931640625
-0.00897216796875
0.00457763671875
0.015380859375
0.002197265625
-0.006042480468749999
-0.00274658203125
-0.0025634765624999996
-0.005859374999999999
-0.0007324218749999999
0.0010986328125
0.008056640624999998
0.019409179687499997
0.02197265625
0.0113525390625
0.00439453125
0.00897216796875
0.012451171875
0.006958007812499999
0.0062255859375
0.015380859375
0.024169921874999997
0.02197265625
0.0157470703125
0.005859374999999999
-0.0054931640625
0.010986328125
0.02178955078125
0.017028808593749997
0.006042480468749999
-0.0020141601562499996
0.00439453125
0.00439453125
0.0032958984375
0.02178955078125
0.03021240234375
0.03021240234375
0.02197265625
0.02142333984375
0.027099609375
0.035888671875
0.0311279296875
0.0325927734375
0.04266357421875
0.04797363281249999
0.04064941406249999
0.0260009765625
0.032958984375
0.0355224609375
0.03460693359375
0.03515625
0.028564453125
0.02197265625
0.020507812499999997
0.01263427734375
0.011718749999999998
0.009704589843749998
0.0018310546875
-0.012451171875
-0.0146484375
-0.014831542968750002
-0.005859374999999999
0.00677490234375
0.014831542968750002
0.0113525390625
0.009887695312499998
0.01116943359375
0.00640869140625
0.00091552734375
-0.00018310546874999997
-0.0047607421875
-0.0054931640625
-0.0054931640625
0.00054931640625
0.014099121093749998
0.024536132812499997
0.016113281249999997
-0.00384521484375
-0.0054931640625
-0.0113525390625
-0.008422851562499998
-0.008056640624999998
-0.008422851562499998
-0.008422851562499998
-0.010986328125
-0.0179443359375
-0.0263671875
-0.0311279296875
-0.0252685546875
-0.003662109375
0.028015136718749997
0.06719970703125
0.1083984375
0.14593505859375
0.1995849609375
0.27246093749999994
0.34130859375
0.41583251953125
0.48010253906250006
0.5240478515625
0.5452880859375
0.5584716796875
0.5416259765625
0.4951171874999999
0.36383056640624994
0.1519775390625
-0.06811523437499999
-0.20654296874999997
-0.23950195312499997
-0.205810546875
-0.1571044921875
-0.1212158203125
-0.11151123046874999
-0.11553955078124999
-0.1212158203125
-0.10198974609374999
-0.06628417968749999
-0.03662109375
-0.030944824218749993
-0.023071289062499997
-0.02252197265625
-0.0216064453125
-0.012084960937499998
-0.0106201171875
-0.010986328125
-0.0128173828125
-0.0186767578125
-0.020690917968749997
-0.017578125
-0.012084960937499998
-0.006958007812499999
-0.00531005859375
-0.00677490234375
-0.005126953124999999
-0.00091552734375
0.0087890625
0.01446533203125
0.006042480468749999
0.00531005859375
0.012268066406249998
0.017120361328125
0.02197265625
0.02178955078125
0.0087890625
0.006042480468749999
0.01190185546875
0.016113281249999997
0.015380859375
0.012451171875
0.0216064453125
0.02728271484375
0.032958984375
0.027099609375
0.01739501953125
0.0179443359375
0.020690917968749997
0.0289306640625
0.02838134765625
0.028198242187499997
0.02728271484375
0.0399169921875
0.05383300781249999
0.0509033203125
0.0545654296875
0.05712890625
0.05474853515624999
0.04962158203125
0.037353515625
0.028198242187499997
0.0355224609375
0.04559326171874999
0.04888916015624999
0.04705810546874999
0.04907226562499999
0.04138183593749999
0.03460693359375
0.03497314453125
0.03698730468749999
0.025634765625
0.021240234375
0.028747558593750003
0.0498046875
0.05877685546875
0.0611572265625
0.04559326171874999
0.04174804687499999
0.03955078124999999
0.04797363281249999
0.05346679687499999
0.05603027343749999
0.07763671874999999
0.10949707031249999
0.14080810546875
0.1329345703125
0.10198974609374999
0.08093261718749999
0.06445312499999999
0.05950927734375
0.0736083984375
0.0772705078125
0.0750732421875
0.08587646484374999
0.1083984375
0.12487792968749999
0.1314697265625
0.1318359375
0.13330078125
0.14208984375
0.13623046874999997
0.14025878906249997
0.14245605468749997
0.15124511718749997
0.15765380859374997
0.15435791015624997
0.14245605468749997
0.15582275390625
0.17138671875
0.18658447265625
0.1885986328125
0.18548583984374997
0.17724609374999997
0.16442871093749997
0.14996337890625
0.15252685546874997
0.15875244140625
0.16040039062499997
0.1556396484375
0.14758300781249997
0.14172363281249997
0.13476562499999997
0.13201904296875
0.13861083984375
0.14245605468749997
0.12689208984375
0.11572265625
0.1153564453125
0.1160888671875
0.09942626953124999
0.08514404296875
0.076171875
0.05987548828124999
0.02984619140625
0.01666259765625
0.010437011718749998
0.0087890625
0.015014648437499998
0.01666259765625
0.0032958984375
-0.023071289062499997
-0.03277587890624999
-0.03405761718749999
-0.03698730468749999
-0.03222656249999999
-0.0384521484375
-0.04815673828125
-0.05035400390625
-0.06976318359375
-0.08203124999999999
-0.06500244140625
-0.04632568359375
-0.03955078124999999
-0.04119873046875
-0.05401611328125
-0.08148193359375
-0.10546875
-0.11737060546874999
-0.12377929687499997
-0.12322998046875001
-0.11297607421875
-0.10162353515625
-0.10766601562499999
-0.10876464843749999
-0.10235595703124999
-0.09942626953124999
-0.09228515624999999
-0.08294677734375
-0.08349609374999999
-0.08093261718749999
-0.0596923828125
-0.05566406249999999
-0.07177734375
-0.087890625
-0.10198974609374999
-0.0963134765625
-0.09118652343749999
-0.0926513671875
-0.0926513671875
-0.084228515625
-0.0750732421875
-0.08038330078124999
-0.0882568359375
-0.0787353515625
-0.075439453125
-0.0732421875
-0.0611572265625
-0.06884765625
-0.07470703125
-0.06298828125
-0.05255126953124999
-0.05474853515624999
-0.04833984374999999
-0.047607421875
-0.05108642578125
-0.0626220703125
-0.05603027343749999
-0.03918457031249999
-0.03057861328125
-0.016113281249999997
-0.00823974609375
-0.0135498046875
-0.0186767578125
-0.0384521484375
-0.0589599609375
-0.0692138671875
-0.066650390625
-0.04833984374999999
-0.04815673828125
-0.052734375
-0.047607421875
-0.052001953125
-0.06079101562499999
-0.0703125
-0.06939697265625
-0.0633544921875
-0.05181884765625
-0.0450439453125
-0.037353515625
-0.03900146484375
-0.04138183593749999
-0.04870605468749999
-0.05712890625
-0.0604248046875
-0.0501708984375
-0.0428466796875
-0.03186035156249999
-0.037353515625
-0.0435791015625
-0.05328369140625
-0.05621337890624999
-0.05511474609374999
-0.04650878906249999
-0.03662109375
-0.0362548828125
-0.044677734375
-0.06372070312499999
-0.07580566406249999
-0.06829833984374999
-0.06005859374999999
-0.05218505859375
-0.04998779296875
-0.037994384765625
-0.0325927734375
-0.0523681640625
-0.06591796875
-0.052734375
-0.04010009765624999
-0.04064941406249999
-0.04431152343749999
-0.0472412109375
-0.04339599609375
-0.047607421875
-0.032958984375
-0.018310546875
-0.0428466796875
-0.05749511718750001
-0.05511474609374999
-0.04046630859374999
-0.0311279296875
-0.03186035156249999
-0.03790283203124999
-0.0472412109375
-0.043212890625
-0.032958984375
-0.028747558593750003
-0.031494140625
-0.0347900390625
-0.0333251953125
-0.03131103515625
-0.04101562499999999
-0.044677734375
-0.03936767578125
-0.0333251953125
-0.03167724609375
-0.0355224609375
-0.03533935546875
-0.020874023437499997
-0.01007080078125
-0.02105712890625
-0.04083251953124999
-0.04339599609375
-0.03424072265625
-0.01776123046875
-0.01263427734375
-0.026916503906249997
-0.04248046875
-0.0498046875
-0.0450439453125
-0.03881835937499999
-0.0325927734375
-0.023071289062499997
-0.01373291015625
-0.024169921874999997
-0.030395507812499997
-0.0377197265625
-0.0450439453125
-0.03717041015625
-0.027832031249999997
-0.020507812499999997
-0.0106201171875
-0.00164794921875
0.007736206054687498
0.0135498046875
0.01904296875
0.022705078125
0.0157470703125
0.0012817382812499998
-0.012451171875
-0.00677490234375
0.00732421875
0.01318359375
0.01812744140625
0.023437499999999997
-0.006042480468749999
-0.030944824218749993
-0.03918457031249999
-0.03881835937499999
-0.0421142578125
-0.0384521484375
-0.025817871093749997
-0.0263671875
-0.0289306640625
-0.0355224609375
-0.0435791015625
-0.04852294921875
-0.05639648437499999
-0.05804443359375
-0.05108642578125
-0.04486083984375
-0.0439453125
-0.0311279296875
-0.026733398437499997
-0.024169921874999997
-0.0157470703125
-0.011718749999999998
-0.01904296875
-0.02197265625
-0.02838134765625
-0.04650878906249999
-0.0377197265625
-0.01904296875
-0.015380859375
-0.0274658203125
-0.03662109375
-0.04833984374999999
-0.04632568359375
-0.031494140625
-0.019409179687499997
0.0029296874999999996
0.03955078124999999
0.09045410156249999
0.14447021484375
0.19610595703124997
0.2698974609375
0.3372802734375
0.40576171875
0.4716796875
0.525146484375
0.54473876953125
0.54840087890625
0.54217529296875
0.5125122070312499
0.40759277343749994
0.2017822265625
-0.031494140625
-0.22320556640625
-0.31512451171874994
-0.3017578125
-0.24407958984374997
-0.1728515625
-0.1318359375
-0.13037109375
-0.142822265625
-0.14447021484375
-0.14007568359375
-0.12158203124999999
-0.09027099609374999
-0.07415771484375
-0.06079101562499999
-0.0498046875
-0.04614257812499999
-0.052734375
-0.04339599609375
-0.03515625
-0.04010009765624999
-0.035888671875
-0.04156494140624999
-0.04632568359375
-0.0457763671875
-0.052001953125
-0.05584716796875
-0.04962158203125
-0.047607421875
-0.06811523437499999
-0.08221435546874999
-0.0736083984375
-0.069580078125
-0.06573486328125
-0.0531005859375
-0.04248046875
-0.03918457031249999
-0.03424072265625
-0.03369140624999999
-0.0421142578125
-0.037353515625
-0.03277587890624999
-0.0355224609375
-0.029663085937500003
-0.003662109375
0.01885986328125
-0.0012817382812499998
-0.01556396484375
-0.0164794921875
-0.01007080078125
-0.029113769531249997
-0.03424072265625
-0.03350830078124999
-0.029663085937500003
-0.013366699218749998
-0.009704589843749998
-0.015380859375
-0.019409179687499997
-0.0128173828125
0.00036621093749999995
0.027832031249999997
0.032958984375
0.0216064453125
0.01812744140625
0.01904296875
0.020507812499999997
0.0113525390625
0.016845703124999997
0.02471923828125
0.04229736328125
0.0596923828125
0.0472412109375
0.02728271484375
0.0216064453125
0.015930175781249997
0.02105712890625
0.02490234375
0.030029296874999997
0.040283203125
0.04650878906249999
0.05346679687499999
0.05822753906249999
0.0677490234375
0.07470703125
0.0736083984375
0.07196044921874999
0.06298828125
0.05291748046875
0.06591796875
0.08807373046875
0.094482421875
0.090087890625
0.08276367187499999
0.094482421875
0.09228515624999999
0.0908203125
0.094482421875
0.09869384765624999
0.101806640625
0.10968017578125
0.11370849609374999
0.11572265625
0.10968017578125
0.11553955078124999
0.1190185546875
0.11828613281249999
0.11627197265625
0.1142578125
0.11279296874999999
0.1142578125
0.1175537109375
0.12030029296874999
0.12139892578125
0.12359619140625
0.11151123046874999
0.11022949218749999
0.11187744140625
0.1058349609375
0.10107421875
0.10546875
0.11462402343749999
0.10510253906249999
0.09320068359375
0.08734130859374999
0.09429931640625
0.087890625
0.06207275390625001
0.04559326171874999
0.04907226562499999
0.04064941406249999
0.03277587890624999
0.03369140624999999
0.007507324218749999
-0.00164794921875
-0.007507324218749999
-0.008056640624999998
-0.00457763671875
-0.01556396484375
-0.04302978515625
-0.0633544921875
-0.06738281249999999
-0.0640869140625
-0.05932617187500001
-0.05804443359375
-0.06390380859375
-0.07159423828125
-0.076171875
-0.07470703125
-0.07342529296875
-0.0648193359375
-0.0596923828125
-0.06079101562499999
-0.08020019531249999
-0.09594726562499999
-0.0889892578125
-0.09210205078125
-0.10638427734374999
-0.11279296874999999
-0.10931396484375
-0.1058349609375
-0.10711669921875
-0.10858154296875
-0.1109619140625
-0.125244140625
-0.14007568359375
-0.16534423828124997
-0.19134521484375
-0.20196533203124997
-0.192626953125
-0.18749999999999997
-0.18548583984374997
-0.18237304687499997
-0.1688232421875
-0.15728759765625
-0.1585693359375
-0.15527343749999997
-0.15161132812499997
-0.14978027343749997
-0.13787841796875
-0.12799072265625
-0.11645507812499999
-0.12194824218749999
-0.13165283203125
-0.14392089843749997
-0.15051269531249997
-0.14611816406249997
-0.1358642578125
-0.14776611328125
-0.15655517578125
-0.1571044921875
-0.1527099609375
-0.13458251953125
-0.11663818359374999
-0.11132812499999999
-0.11553955078124999
-0.10638427734374999
-0.106201171875
-0.12158203124999999
-0.12908935546875
-0.13458251953125
-0.1380615234375
-0.14392089843749997
-0.138427734375
-0.13110351562499997
-0.1292724609375
-0.1314697265625
-0.1256103515625
-0.11846923828124999
-0.113525390625
-0.10986328125
-0.109130859375
-0.10400390625
-0.08770751953124999
-0.0838623046875
-0.08276367187499999
-0.08312988281249999
-0.085693359375
-0.08441162109375
-0.08770751953124999
-0.0933837890625
-0.094482421875
-0.09759521484375
-0.09558105468749999
-0.08587646484374999
-0.076446533203125
-0.08367919921875
-0.08056640625
-0.0732421875
-0.0611572265625
-0.06756591796875
-0.08020019531249999
-0.0889892578125
-0.08074951171875
-0.0714111328125
-0.08020019531249999
-0.07818603515625
-0.07489013671874999
-0.061889648437499986
-0.0501708984375
-0.06207275390625001
-0.0721435546875
-0.0684814453125
-0.06390380859375
-0.0509033203125
-0.04010009765624999
-0.03955078124999999
-0.05346679687499999
-0.06738281249999999
-0.061889648437499986
-0.05932617187500001
-0.0615234375
-0.062255859375
-0.0633544921875
-0.0615234375
-0.052734375
-0.03662109375
-0.028198242187499997
-0.03222656249999999
-0.0333251953125
-0.04705810546874999
-0.05108642578125
-0.047607421875
-0.05291748046875
-0.05328369140625
-0.05072021484375
-0.04248046875
-0.03314208984374999
-0.04339599609375
-0.04614257812499999
-0.04925537109374999
-0.04815673828125
-0.044677734375
-0.03057861328125
-0.013366699218749998
-0.02947998046875
-0.05108642578125
-0.05181884765625
-0.04248046875
-0.04614257812499999
-0.0498046875
-0.05566406249999999
-0.05438232421874999
-0.05932617187500001
-0.05438232421874999
-0.04138183593749999
-0.03186035156249999
-0.0384521484375
-0.0545654296875
-0.04833984374999999
-0.0498046875
-0.04541015625
-0.04833984374999999
-0.04156494140624999
-0.02197265625
-0.01446533203125
-0.0014648437499999998
0.011718749999999998
0.0142822265625
0.012268066406249998
0.0047607421875
0.010986328125
0.015014648437499998
0.006591796875
-0.0018310546875
-0.011718749999999998
-0.015014648437499998
-0.014099121093749998
-0.0076904296875
-0.00164794921875
-0.00238037109375
-0.0012817382812499998
-0.00018310546874999997
0.0029296874999999996
0.004028320312499999
-0.0091552734375
-0.027648925781249997
-0.025634765625
-0.014831542968750002
-0.006958007812499999
-0.00164794921875
-0.006042480468749999
-0.008422851562499998
-0.010253906249999998
-0.0157470703125
-0.0018310546875
0.006591796875
0.0087890625
0.011718749999999998
-0.00054931640625
-0.01300048828125
-0.0128173828125
-0.0172119140625
-0.0201416015625
-0.02142333984375
-0.019592285156249997
-0.020507812499999997
-0.02490234375
-0.0362548828125
-0.05108642578125
-0.05987548828124999
-0.06463623046875
-0.06591796875
-0.0435791015625
-0.00732421875
0.03222656249999999
0.0787353515625
0.15142822265625
0.24169921875
0.31347656249999994
0.3834228515625
0.46655273437499994
0.5330200195312499
0.5859375
0.6339111328125
0.67529296875
0.67291259765625
0.5592041015624999
0.3446044921875
0.11553955078124999
-0.057403564453125
-0.17083740234374997
-0.20361328125
-0.19189453124999997
-0.173583984375
-0.17376708984375
-0.16236877441406247
-0.13714599609375
-0.10491943359374999
-0.08843994140624999
-0.06939697265625
-0.04833984374999999
-0.04119873046875
-0.05108642578125
-0.043212890625
-0.04193115234375
-0.03021240234375
-0.016113281249999997
-0.02252197265625
-0.034423828125
-0.0380859375
-0.027099609375
-0.019409179687499997
-0.0223388671875
-0.0201416015625
-0.0157470703125
-0.015380859375
-0.015014648437499998
-0.017028808593749997
-0.016113281249999997
-0.014099121093749998
-0.010253906249999998
-0.00714111328125
-0.005859374999999999
-0.00531005859375
-0.005126953124999999
0.0007324218749999999
0.004211425781249999
0.00732421875
0.0054931640625
0.004028320312499999
-0.003662109375
-0.01007080078125
-0.00384521484375
-0.005126953124999999
-0.0054931640625
0.0
0.009704589843749998
0.0142822265625
0.010253906249999998
0.0025634765624999996
0.0007324218749999999
0.00439453125
0.0076904296875
0.011718749999999998
0.015380859375
0.01300048828125
0.01007080078125
0.00238037109375
0.01318359375
0.02508544921875
0.032958984375
0.030029296874999997
0.02545166015625
0.03222656249999999
0.03186035156249999
0.03076171875
0.04248046875
0.054931640625
0.0531005859375
0.044677734375
0.029296875
0.02618408203125
0.026733398437499997
0.03515625
0.04138183593749999
0.03662109375
0.034423828125
0.03753662109375
0.04541015625
0.06372070312499999
0.08642578125
0.08880615234375
0.07855224609375
0.08294677734375
0.08020019531249999
0.0684814453125
0.05346679687499999
0.0509033203125
0.05731201171874999
0.06372070312499999
0.065185546875
0.076904296875
0.07598876953125
0.05859375
0.05438232421874999
0.05932617187500001
0.06207275390625001
0.06372070312499999
0.05932617187500001
0.06903076171875
0.07470703125
0.076171875
0.06500244140625
0.066650390625
0.06573486328125
0.06207275390625001
0.06719970703125
0.07763671874999999
0.08514404296875
0.08221435546874999
0.08166503906249999
0.09173583984375
0.09356689453125
0.100341796875
0.09796142578125
0.099609375
0.109130859375
0.12835693359374997
0.1322021484375
0.11810302734375
0.1109619140625
0.10748291015625
0.1036376953125
0.1058349609375
0.10400390625
0.100341796875
0.1036376953125
0.09851074218749999
0.08990478515624999
0.07910156249999999
0.069580078125
0.05932617187500001
0.047607421875
0.04266357421875
0.0311279296875
0.017028808593749997
0.01318359375
0.0
-0.016845703124999997
-0.025817871093749997
-0.029663085937500003
-0.028564453125
-0.03131103515625
-0.0384521484375
-0.04632568359375
-0.05603027343749999
-0.0728759765625
-0.07672119140625
-0.06591796875
-0.0596923828125
-0.07177734375
-0.08551025390625
-0.08349609374999999
-0.07397460937499999
-0.0615234375
-0.0545654296875
-0.06024169921875
-0.06756591796875
-0.0728759765625
-0.0750732421875
-0.076904296875
-0.07745361328125
-0.0823974609375
-0.0838623046875
-0.08093261718749999
-0.07489013671874999
-0.06134033203124999
-0.06097412109374999
-0.0640869140625
-0.06079101562499999
-0.05603027343749999
-0.0494384765625
-0.0509033203125
-0.052734375
-0.04687499999999999
-0.0289306640625
-0.02490234375
-0.03497314453125
-0.0274658203125
-0.030029296874999997
-0.04421997070312499
-0.061889648437499986
-0.07196044921874999
-0.06445312499999999
-0.05474853515624999
-0.0509033203125
-0.03186035156249999
-0.04046630859374999
-0.0501708984375
-0.0333251953125
-0.03387451171875
-0.044677734375
-0.06536865234375
-0.07965087890625
-0.0604248046875
-0.05145263671875
-0.03753662109375
-0.0347900390625
-0.043212890625
-0.050537109375
-0.054931640625
-0.05621337890624999
-0.06427001953125
-0.0684814453125
-0.06811523437499999
-0.04962158203125
-0.0439453125
-0.05603027343749999
-0.06628417968749999
-0.0684814453125
-0.07470703125
-0.0714111328125
-0.0615234375
-0.05932617187500001
-0.06555175781249999
-0.06628417968749999
-0.06298828125
-0.076904296875
-0.08056640625
-0.05987548828124999
-0.03643798828125
-0.029296875
-0.03254699707031249
-0.022155761718749997
-0.019409179687499997
-0.02105712890625
-0.025634765625
-0.028015136718749997
-0.023437499999999997
-0.0164794921875
-0.02728271484375
-0.04559326171874999
-0.0611572265625
-0.06573486328125
-0.05712890625
-0.05181884765625
-0.03790283203124999
-0.020507812499999997
-0.0263671875
-0.030029296874999997
-0.027099609375
-0.03314208984374999
-0.03680419921875
-0.03662109375
-0.021240234375
-0.0128173828125
-0.00732421875
-0.018310546875
-0.026733398437499997
-0.027832031249999997
-0.025817871093749997
-0.022705078125
-0.016845703124999997
-0.024353027343749997
-0.03021240234375
-0.019775390624999997
-0.02947998046875
-0.0439453125
-0.0274658203125
0.00018310546874999997
0.009521484375
0.012451171875
0.008422851562499998
-0.0128173828125
-0.0274658203125
-0.0252685546875
-0.015930175781249997
-0.015930175781249997
-0.02838134765625
-0.029296875
-0.027648925781249997
-0.027099609375
-0.018310546875
-0.012268066406249998
-0.02142333984375
-0.030395507812499997
-0.035888671875
-0.04742431640624999
-0.04669189453125
-0.04229736328125
-0.02178955078125
-0.008422851562499998
-0.0062255859375
-0.012084960937499998
-0.03881835937499999
-0.04632568359375
-0.05108642578125
-0.05749511718750001
-0.06170654296874999
-0.0450439453125
-0.0311279296875
-0.024169921874999997
-0.019409179687499997
-0.022155761718749997
-0.025634765625
-0.002197265625
-0.0007324218749999999
0.01300048828125
0.0
0.013366699218749998
0.00860595703125
0.00732421875
0.0164794921875
0.019409179687499997
0.0260009765625
0.03314208984374999
0.028747558593750003
0.0146484375
0.01300048828125
0.0128173828125
0.010253906249999998
0.0106201171875
0.00036621093749999995
-0.006591796875
-0.00640869140625
-0.00732421875
-0.0106201171875
-0.023071289062499997
-0.028198242187499997
-0.029296875
-0.027099609375
-0.023071289062499997
-0.0179443359375
-0.0113525390625
-0.009521484375
-0.01556396484375
-0.00439453125
0.02288818359375
0.021240234375
0.0087890625
-0.00238037109375
-0.005126953124999999
-0.00384521484375
0.0029296874999999996
0.01080322265625
0.008422851562499998
0.009521484375
0.0216064453125
0.0146484375
0.00732421875
0.010986328125
0.02471923828125
0.029663085937500003
0.025634765625
0.0076904296875
-0.01300048828125
-0.02178955078125
-0.015380859375
-0.013366699218749998
0.00311279296875
0.022705078125
0.05383300781249999
0.09906005859375
0.1483154296875
0.21478271484374997
0.28527832031249994
0.35980224609375
0.45208740234375
0.51727294921875
0.57513427734375
0.6273193359374999
0.6672363281249999
0.656982421875
0.5668945312499999
0.403564453125
0.23089599609375003
0.0970458984375
-0.01922607421875
-0.07781982421875
-0.09356689453125
-0.09374999999999999
-0.09594726562499999
-0.0963134765625
-0.07891845703125
-0.06079101562499999
-0.0421142578125
-0.02838134765625
-0.012268066406249998
-0.00384521484375
-0.00439453125
-0.0106201171875
-0.02618408203125
-0.03076171875
-0.018493652343749997
-0.00238037109375
-0.00823974609375
-0.00732421875
-0.0054931640625
-0.0135498046875
-0.01812744140625
-0.0135498046875
-0.0201416015625
-0.0263671875
-0.0311279296875
-0.02655029296875
-0.015380859375
-0.010986328125
-0.015197753906249998
-0.0142822265625
-0.0054931640625
-0.010253906249999998
-0.0087890625
-0.008056640624999998
-0.014831542968750002
-0.019592285156249997
-0.024536132812499997
-0.02105712890625
-0.018310546875
-0.016113281249999997
-0.010253906249999998
-0.0062255859375
0.0032958984375
-0.00036621093749999995
-0.00274658203125
-0.005859374999999999
0.0
-0.00018310546874999997
0.0062255859375
-0.006591796875
-0.008056640624999998
0.00439453125
0.019775390624999997
0.032958984375
0.03057861328125
0.03076171875
0.03533935546875
0.0384521484375
0.029663085937500003
0.0223388671875
0.01885986328125
0.01812744140625
0.01812744140625
0.021240234375
0.02490234375
0.018493652343749997
0.01318359375
0.016113281249999997
0.020874023437499997
0.03369140624999999
0.032958984375
0.03369140624999999
0.0439453125
0.05950927734375
0.069580078125
0.06317138671875
0.0589599609375
0.06024169921875
0.05346679687499999
0.0435791015625
0.03863525390625
0.04632568359375
0.0615234375
0.05987548828124999
0.05639648437499999
0.0626220703125
0.06591796875
0.0604248046875
0.06298828125
0.0860595703125
0.0875244140625
0.084228515625
0.08807373046875
0.07910156249999999
0.07305908203124999
0.066650390625
0.0706787109375
0.0780029296875
0.08953857421874999
0.09246826171875
0.09594726562499999
0.0992431640625
0.10107421875
0.09539794921875
0.09173583984375
0.094482421875
0.08734130859374999
0.0860595703125
0.08056640625
0.07196044921874999
0.08056640625
0.09411621093749999
0.09210205078125
0.0963134765625
0.09869384765624999
0.090087890625
0.08203124999999999
0.08312988281249999
0.0677490234375
0.06298828125
0.071044921875
0.08276367187499999
0.075439453125
0.057861328125
0.052734375
0.05749511718750001
0.05401611328125
0.03131103515625
0.00897216796875
-0.004211425781249999
-0.0091552734375
-0.0146484375
-0.021240234375
-0.026916503906249997
-0.015014648437499998
-0.0142822265625
-0.025817871093749997
-0.04229736328125
-0.05712890625
-0.06372070312499999
-0.07122802734374999
-0.06628417968749999
-0.06536865234375
-0.08331298828125
-0.0933837890625
-0.0867919921875
-0.0732421875
-0.06866455078125
-0.076904296875
-0.08148193359375
-0.085693359375
-0.087890625
-0.091552734375
-0.0875244140625
-0.076171875
-0.0692138671875
-0.0750732421875
-0.0926513671875
-0.1029052734375
-0.0867919921875
-0.06884765625
-0.07562255859374999
-0.0838623046875
-0.0867919921875
-0.08184814453125
-0.071044921875
-0.07379150390624999
-0.07122802734374999
-0.05914306640624999
-0.05145263671875
-0.055206298828125
-0.061889648437499986
-0.06445312499999999
-0.06536865234375
-0.0615234375
-0.05401611328125
-0.04193115234375
-0.03607177734375
-0.04083251953124999
-0.04431152343749999
-0.04687499999999999
-0.05639648437499999
-0.04248046875
-0.030029296874999997
-0.03405761718749999
-0.04431152343749999
-0.04541015625
-0.0377197265625
-0.01885986328125
-0.011535644531249998
-0.02655029296875
-0.03900146484375
-0.04669189453125
-0.04833984374999999
-0.03863525390625
-0.0347900390625
-0.0325927734375
-0.0355224609375
-0.03662109375
-0.04266357421875
-0.0380859375
-0.0289306640625
-0.020874023437499997
-0.0216064453125
-0.0216064453125
-0.010253906249999998
-0.004943847656249999
-0.020507812499999997
-0.03680419921875
-0.03240966796875
-0.02471923828125
-0.019409179687499997
-0.01666259765625
-0.028564453125
-0.03570556640625
-0.028747558593750003
-0.0223388671875
-0.019775390624999997
-0.016113281249999997
-0.0113525390625
-0.00732421875
-0.011535644531249998
-0.016845703124999997
-0.020324707031249997
-0.0252685546875
-0.030944824218749993
-0.0311279296875
-0.0223388671875
-0.0238037109375
-0.02984619140625
-0.03698730468749999
-0.0399169921875
-0.03863525390625
-0.03662109375
-0.0274658203125
-0.0172119140625
-0.014099121093749998
-0.030029296874999997
-0.04431152343749999
-0.0472412109375
-0.043212890625
-0.0421142578125
-0.027099609375
-0.024536132812499997
-0.03076171875
-0.037353515625
-0.04101562499999999
-0.0439453125
-0.0435791015625
-0.040283203125
-0.0421142578125
-0.04412841796875
-0.03314208984374999
-0.02490234375
-0.018310546875
-0.0164794921875
-0.01190185546875
-0.017578125
-0.03076171875
-0.03277587890624999
-0.02490234375
-0.0201416015625
-0.020874023437499997
-0.03222656249999999
-0.030029296874999997
-0.021240234375
-0.01629638671875
-0.01885986328125
-0.023986816406249997
-0.019592285156249997
-0.015380859375
-0.017578125
-0.023071289062499997
-0.024536132812499997
-0.02105712890625
-0.00823974609375
0.002197265625
-0.0047607421875
-0.0274658203125
-0.01885986328125
-0.011535644531249998
-0.01318359375
-0.0362548828125
-0.0567626953125
-0.05511474609374999
-0.04888916015624999
-0.04064941406249999
-0.03076171875
-0.0252685546875
-0.029296875
-0.03369140624999999
-0.037353515625
-0.0274658203125
-0.021240234375
-0.0223388671875
-0.0260009765625
-0.0252685546875
-0.024536132812499997
-0.024353027343749997
-0.029296875
-0.016113281249999997
0.005859374999999999
0.0172119140625
0.022705078125
0.023071289062499997
0.0216064453125
0.03662109375
0.03863525390625
0.02252197265625
0.013916015624999998
0.005859374999999999
0.0062255859375
0.0172119140625
0.02288818359375
0.03021240234375
0.01629638671875
0.00933837890625
0.0164794921875
0.018493652343749997
0.0087890625
0.01190185546875
0.01666259765625
0.021240234375
0.021240234375
0.011535644531249998
0.0179443359375
0.0223388671875
0.01318359375
0.020874023437499997
0.03460693359375
0.024353027343749997
0.016113281249999997
0.021240234375
0.020874023437499997
0.024536132812499997
0.02490234375
0.02618408203125
0.022155761718749997
0.0274658203125
0.0311279296875
0.0146484375
0.00567626953125
0.0010986328125
0.00054931640625
-0.009521484375
-0.021240234375
-0.026916503906249997
-0.02947998046875
-0.020507812499999997
-0.00439453125
0.028015136718749997
0.07177734375
0.10693359374999999
0.136962890625
0.19482421874999997
0.270263671875
0.33801269531249994
0.421875
0.487060546875
0.5364990234375
0.5804443359375
0.6090087890625
0.60296630859375
0.51708984375
0.34130859375
0.13897705078124997
-0.0146484375
-0.12414550781250001
-0.18457031249999997
-0.1900634765625
-0.1787109375
-0.16900634765624997
-0.1673583984375
-0.14794921874999997
-0.120849609375
-0.10565185546874999
-0.08935546875
-0.072509765625
-0.06866455078125
-0.0692138671875
-0.0626220703125
-0.069580078125
-0.08056640625
-0.08312988281249999
-0.0736083984375
-0.06134033203124999
-0.05767822265625
-0.050537109375
-0.04833984374999999
-0.05950927734375
-0.06390380859375
-0.0684814453125
-0.06591796875
-0.0626220703125
-0.05804443359375
-0.07379150390624999
-0.08221435546874999
-0.078643798828125
-0.07598876953125
-0.06738281249999999
-0.06005859374999999
-0.05621337890624999
-0.05584716796875
-0.05383300781249999
-0.05419921875
-0.057861328125
-0.05712890625
-0.043212890625
-0.0216064453125
-0.0087890625
-0.019409179687499997
-0.029296875
-0.029296875
-0.03204345703125
-0.03643798828125
-0.03515625
-0.03277587890624999
-0.0266876220703125
-0.025817871093749997
-0.02471923828125
-0.01116943359375
-0.00384521484375
-0.015380859375
-0.02105712890625
-0.011718749999999998
-0.004028320312499999
0.010253906249999998
0.029296875
0.035888671875
0.0274658203125
0.026733398437499997
0.03021240234375
0.0333251953125
0.04156494140624999
0.0498046875
0.0501708984375
0.05932617187500001
0.06097412109374999
0.0523681640625
0.03076171875
0.02252197265625
0.03680419921875
0.04174804687499999
0.04101562499999999
0.03460693359375
0.03698730468749999
0.0457763671875
0.054931640625
0.06280517578125
0.0684814453125
0.07415771484375
0.07745361328125
0.07672119140625
0.0732421875
0.0838623046875
0.09906005859375
0.098876953125
0.09796142578125
0.079833984375
0.0706787109375
0.06793212890625
0.0677490234375
0.06701660156249999
0.06573486328125
0.06372070312499999
0.0640869140625
0.0703125
0.076904296875
0.08660888671874999
0.0970458984375
0.10162353515625
0.09613037109375
0.09521484375
0.08862304687499999
0.07836914062499999
0.07525634765624999
0.08056640625
0.08276367187499999
0.08990478515624999
0.09411621093749999
0.07489013671874999
0.0699462890625
0.06829833984374999
0.06884765625
0.07397460937499999
0.07177734375
0.06170654296874999
0.057861328125
0.05603027343749999
0.05181884765625
0.04248046875
0.040283203125
0.0384521484375
0.02984619140625
0.015197753906249998
-0.0020141601562499996
-0.006958007812499999
-0.00732421875
-0.015014648437499998
-0.019592285156249997
-0.01885986328125
-0.0238037109375
-0.02838134765625
-0.03955078124999999
-0.04522705078124999
-0.0501708984375
-0.0509033203125
-0.05822753906249999
-0.06536865234375
-0.065185546875
-0.06280517578125
-0.09063720703125
-0.1116943359375
-0.1065673828125
-0.10894775390625
-0.11590576171875
-0.11132812499999999
-0.10400390625
-0.1072998046875
-0.1065673828125
-0.10766601562499999
-0.10968017578125
-0.09814453124999999
-0.08953857421874999
-0.08020019531249999
-0.06939697265625
-0.06390380859375
-0.06738281249999999
-0.07397460937499999
-0.08111572265625
-0.084228515625
-0.08697509765625
-0.08203124999999999
-0.07928466796875
-0.07745361328125
-0.08056640625
-0.08221435546874999
-0.0838623046875
-0.08807373046875
-0.0853271484375
-0.0823974609375
-0.08001708984375
-0.07562255859374999
-0.07818603515625
-0.08697509765625
-0.08084106445312499
-0.07012939453124999
-0.0626220703125
-0.0780029296875
-0.0933837890625
-0.0992431640625
-0.09393310546875
-0.0772705078125
-0.06079101562499999
-0.05529785156249999
-0.054931640625
-0.0626220703125
-0.08660888671874999
-0.09759521484375
-0.076171875
-0.06701660156249999
-0.06445312499999999
-0.06683349609375
-0.06646728515625
-0.05694580078124999
-0.04541015625
-0.04229736328125
-0.0450439453125
-0.06005859374999999
-0.0743408203125
-0.07196044921874999
-0.07049560546875
-0.07086181640624999
-0.0567626953125
-0.05950927734375
-0.0699462890625
-0.0823974609375
-0.08587646484374999
-0.071044921875
-0.09118652343749999
-0.10308837890624999
-0.0838623046875
-0.06628417968749999
-0.06884765625
-0.07470703125
-0.07086181640624999
-0.05548095703125
-0.04431152343749999
-0.03863525390625
-0.04815673828125
-0.04522705078124999
-0.03076171875
-0.026916503906249997
-0.047607421875
-0.0845947265625
-0.08349609374999999
-0.07928466796875
-0.0849609375
-0.0908203125
-0.07653808593749999
-0.05401611328125
-0.03314208984374999
-0.0252685546875
-0.02142333984375
-0.04412841796875
-0.0703125
-0.09938049316406249
-0.09613037109375
-0.07745361328125
-0.08020019531249999
-0.0567626953125
-0.046417236328125
-0.0531005859375
-0.04962158203125
-0.05749511718750001
-0.052734375
-0.04888916015624999
-0.0523681640625
-0.05255126953124999
-0.0596923828125
-0.06829833984374999
-0.071044921875
-0.07305908203124999
-0.0823974609375
-0.08038330078124999
-0.0867919921875
-0.0963134765625
-0.11004638671875
-0.09246826171875
-0.11242675781249999
-0.11682128906250001
-0.09814453124999999
-0.10546875
-0.12890624999999997
-0.15760803222656247
-0.16754150390625
-0.13348388671875
-0.08843994140624999
-0.0615234375
-0.11004638671875
-0.16333007812499997
-0.14538574218749997
-0.090087890625
-0.0780029296875
-0.04962158203125
-0.1387939453125
-0.17431640625
-0.13916015625
-0.07305908203124999
0.006958007812499999
0.03863525390625
0.026733398437499997
-0.0128173828125
-0.06005859374999999
-0.0750732421875
-0.075439453125
-0.0333251953125
-0.01739501953125
-0.00567626953125
0.02142333984375
0.034423828125
0.03881835937499999
0.032958984375
0.01904296875
0.01007080078125
-0.0020141601562499996
-0.01629638671875
-0.028198242187499997
-0.04119873046875
-0.04650878906249999
-0.04010009765624999
-0.03570556640625
-0.03790283203124999
-0.04248046875
-0.0450439453125
-0.0450439453125
-0.0380859375
-0.02838134765625
-0.027099609375
-0.029113769531249997
-0.03186035156249999
-0.034423828125
-0.0333251953125
-0.029113769531249997
-0.027648925781249997
-0.02197265625
-0.0201416015625
-0.02545166015625
-0.023986816406249997
-0.023071289062499997
-0.022705078125
-0.029663085937500003
-0.03057861328125
-0.02178955078125
-0.0186767578125
-0.021240234375
-0.023437499999999997
-0.023071289062499997
-0.029663085937500003
-0.0439453125
-0.0545654296875
-0.05621337890624999
-0.06079101562499999
-0.06298828125
-0.069580078125
-0.07653808593749999
-0.066650390625
-0.04248046875
0.0010986328125
0.05639648437499999
0.11132812499999999
0.1761474609375
0.25836181640625006
0.33911132812499994
0.42041015624999994
0.49603271484374994
0.55133056640625
0.57861328125
0.5958251953124999
0.5934448242187499
0.572021484375
0.4420166015625
0.21112060546874997
-0.04687499999999999
-0.20617675781249997
-0.25836181640625006
-0.24169921875
-0.183837890625
-0.1314697265625
-0.1036376953125
-0.09429931640625
-0.0838623046875
-0.0692138671875
-0.06079101562499999
-0.04248046875
-0.0238037109375
-0.010986328125
-0.0018310546875
0.006958007812499999
0.008422851562499998
0.0054931640625
0.0076904296875
-0.00018310546874999997
-0.008422851562499998
-0.011535644531249998
-0.0113525390625
-0.0087890625
-0.015930175781249997
-0.0135498046875
-0.0087890625
0.00640869140625
0.015014648437499998
0.01373291015625
0.0164794921875
0.0201416015625
0.020507812499999997
0.02142333984375
0.00531005859375
-0.0032958984375
-0.008422851562499998
-0.00933837890625
-0.0047607421875
-0.00823974609375
-0.010253906249999998
-0.016845703124999997
-0.029113769531249997
-0.029296875
-0.01904296875
-0.015014648437499998
-0.01885986328125
-0.017578125
-0.016113281249999997
-0.006042480468749999
0.0076904296875
0.02252197265625
0.03405761718749999
0.0494384765625
0.0684814453125
0.07397460937499999
0.072509765625
0.07269287109374999
0.06024169921875
0.050537109375
0.05291748046875
0.05529785156249999
0.04669189453125
0.0494384765625
0.0684814453125
0.08807373046875
0.0860595703125
0.09228515624999999
0.08734130859374999
0.090087890625
0.09228515624999999
0.091552734375
0.08349609374999999
0.0823974609375
0.0889892578125
0.09851074218749999
0.100341796875
0.10235595703124999
0.10089111328125
0.09942626953124999
0.1065673828125
0.11242675781249999
0.12066650390624999
0.1270751953125
0.12542724609375
0.12286376953125
0.13018798828124997
0.13385009765624997
0.1292724609375
0.123046875
0.12744140624999997
0.14392089843749997
0.16040039062499997
0.16937255859375
0.1666259765625
0.1435546875
0.13861083984375
0.14154052734374997
0.15051269531249997
0.1549072265625
0.156005859375
0.1593017578125
0.15838623046875
0.15985107421875
0.16461181640624997
0.164794921875
0.1494140625
0.13897705078124997
0.14373779296875
0.15124511718749997
0.15692138671874997
0.1494140625
0.14245605468749997
0.15673828124999997
0.16900634765624997
0.15527343749999997
0.13623046874999997
0.12835693359374997
0.1318359375
0.123046875
0.12542724609375
0.1329345703125
0.1314697265625
0.12322998046875001
0.12011718749999999
0.1025390625
0.07836914062499999
0.03863525390625
0.024169921874999997
0.03131103515625
0.03790283203124999
0.03881835937499999
0.054931640625
0.0615234375
0.06097412109374999
0.05914306640624999
0.0494384765625
0.0362548828125
0.01739501953125
-0.0012817382812499998
-0.027099609375
-0.03405761718749999
-0.02984619140625
-0.0384521484375
-0.05584716796875
-0.065185546875
-0.0721435546875
-0.07653808593749999
-0.07397460937499999
-0.076171875
-0.0589599609375
-0.061889648437499986
-0.076904296875
-0.09667968749999999
-0.11956787109375
-0.1025390625
-0.0780029296875
-0.08074951171875
-0.08349609374999999
-0.079833984375
-0.08349609374999999
-0.0823974609375
-0.08001708984375
-0.08184814453125
-0.07122802734374999
-0.076171875
-0.09484863281249999
-0.0926513671875
-0.0853271484375
-0.08148193359375
-0.07580566406249999
-0.07122802734374999
-0.071044921875
-0.06829833984374999
-0.0699462890625
-0.06536865234375
-0.05749511718750001
-0.06646728515625
-0.07562255859374999
-0.08129882812499999
-0.084228515625
-0.0838623046875
-0.084228515625
-0.06976318359375
-0.06555175781249999
-0.08129882812499999
-0.08624267578125
-0.08084106445312499
-0.07672119140625
-0.06079101562499999
-0.05364990234375
-0.06207275390625001
-0.07122802734374999
-0.07946777343749999
-0.07598876953125
-0.07928466796875
-0.09118652343749999
-0.08166503906249999
-0.06903076171875
-0.06591796875
-0.06353759765625
-0.07836914062499999
-0.08624267578125
-0.08184814453125
-0.0849609375
-0.09210205078125
-0.0963134765625
-0.09558105468749999
-0.08862304687499999
-0.099609375
-0.11114501953125
-0.10491943359374999
-0.09814453124999999
-0.09759521484375
-0.09539794921875
-0.090087890625
-0.0845947265625
-0.10015869140625
-0.12982177734375
-0.12487792968749999
-0.1160888671875
-0.10052490234374999
-0.10107421875
-0.0897216796875
-0.08056640625
-0.0860595703125
-0.08935546875
-0.08367919921875
-0.090087890625
-0.10455322265624999
-0.10418701171874999
-0.09832763671875
-0.09796142578125
-0.094482421875
-0.09301757812499999
-0.09063720703125
-0.099609375
-0.10235595703124999
-0.09136962890625
-0.0838623046875
-0.091552734375
-0.0849609375
-0.07910156249999999
-0.079833984375
-0.0860595703125
-0.09393310546875
-0.08990478515624999
-0.08862304687499999
-0.09814453124999999
-0.10125732421874999
-0.08587646484374999
-0.07049560546875
-0.06591796875
-0.06866455078125
-0.07196044921874999
-0.05932617187500001
-0.05731201171874999
-0.04907226562499999
-0.03900146484375
-0.02471923828125
-0.03698730468749999
-0.035888671875
-0.031494140625
-0.032958984375
-0.0421142578125
-0.04687499999999999
-0.05639648437499999
-0.07269287109374999
-0.07562255859374999
-0.0750732421875
-0.06591796875
-0.06005859374999999
-0.07012939453124999
-0.06976318359375
-0.06976318359375
-0.06719970703125
-0.06134033203124999
-0.05822753906249999
-0.06939697265625
-0.0728759765625
-0.066650390625
-0.05566406249999999
-0.04907226562499999
-0.03662109375
-0.02838134765625
-0.02947998046875
-0.04156494140624999
-0.05291748046875
-0.0531005859375
-0.054931640625
-0.05914306640624999
-0.0615234375
-0.05987548828124999
-0.05749511718750001
-0.04614257812499999
-0.0355224609375
-0.029296875
-0.03643798828125
-0.05126953125
-0.05346679687499999
-0.04907226562499999
-0.05603027343749999
-0.06243896484374999
-0.07653808593749999
-0.08404541015624999
-0.0736083984375
-0.05529785156249999
-0.040283203125
-0.025634765625
-0.0260009765625
-0.024536132812499997
-0.005126953124999999
0.00036621093749999995
-0.0091552734375
-0.016113281249999997
-0.01885986328125
-0.016113281249999997
-0.0091552734375
0.0012817382812499998
0.014831542968750002
0.0347900390625
0.03826904296874999
0.03497314453125
0.02490234375
0.011718749999999998
-0.00018310546874999997
-0.0014648437499999998
0.002197265625
0.00640869140625
0.0076904296875
0.03387451171875
0.07598876953125
0.12487792968749999
0.17230224609375
0.24133300781249997
0.31988525390625
0.39111328124999994
0.470947265625
0.5368652343750001
0.59783935546875
0.65789794921875
0.703125
0.7001953125
0.61065673828125
0.42626953125
0.228515625
0.0648193359375
-0.0714111328125
-0.12762451171874997
-0.10949707031249999
-0.0882568359375
-0.0860595703125
-0.07745361328125
-0.05950927734375
-0.03405761718749999
0.0007324218749999999
0.030029296874999997
0.03826904296874999
0.04852294921875
0.05291748046875
0.03955078124999999
0.024536132812499997
0.01776123046875
0.0274658203125
0.028198242187499997
0.0135498046875
0.00640869140625
0.004028320312499999
0.007507324218749999
0.01318359375
-0.00018310546874999997
-0.010437011718749998
-0.017578125
-0.023437499999999997
-0.0260009765625
-0.024353027343749997
-0.01739501953125
-0.0087890625
-0.00714111328125
-0.006958007812499999
-0.007507324218749999
-0.017578125
-0.035888671875
-0.05474853515624999
-0.06079101562499999
-0.0626220703125
-0.061889648437499986
-0.06445312499999999
-0.0699462890625
-0.0750732421875
-0.07049560546875
-0.06390380859375
-0.06079101562499999
-0.06536865234375
-0.06701660156249999
-0.05749511718750001
-0.0450439453125
-0.0399169921875
-0.04101562499999999
-0.04870605468749999
-0.03515625
-0.0106201171875
0.0032958984375
0.00677490234375
0.005126953124999999
0.0179443359375
0.03698730468749999
0.04559326171874999
0.03900146484375
0.030944824218749993
0.02947998046875
0.0333251953125
0.03863525390625
0.04119873046875
0.03973388671874999
0.04632568359375
0.05218505859375
0.0472412109375
0.0421142578125
0.031494140625
0.050537109375
0.0706787109375
0.06207275390625001
0.0596923828125
0.06811523437499999
0.06738281249999999
0.0633544921875
0.06628417968749999
0.0867919921875
0.09484863281249999
0.0926513671875
0.0933837890625
0.08056640625
0.0853271484375
0.0919189453125
0.09301757812499999
0.0897216796875
0.087890625
0.0933837890625
0.09301757812499999
0.06610107421875
0.05163574218749999
0.076904296875
0.10510253906249999
0.123046875
0.1212158203125
0.1109619140625
0.10693359374999999
0.12377929687499997
0.1190185546875
0.10748291015625
0.10858154296875
0.13256835937499997
0.13037109375
0.13037109375
0.076904296875
0.03881835937499999
0.0750732421875
0.08642578125
0.1007080078125
0.07342529296875
0.06427001953125
0.07910156249999999
0.0849609375
0.075439453125
0.05145263671875
0.05126953125
0.0567626953125
0.0380859375
0.01556396484375
0.022155761718749997
0.0399169921875
0.0355224609375
0.027099609375
0.015197753906249998
0.0179443359375
0.015014648437499998
0.012084960937499998
0.0025634765624999996
-0.026733398437499997
-0.024169921874999997
-0.01812744140625
-0.02728271484375
-0.0333251953125
-0.03533935546875
-0.04632568359375
-0.05383300781249999
-0.05914306640624999
-0.0523681640625
-0.04907226562499999
-0.0380859375
-0.035888671875
-0.03186035156249999
-0.06097412109374999
-0.084228515625
-0.0703125
-0.05859375
-0.052001953125
-0.052001953125
-0.057861328125
-0.05181884765625
-0.06628417968749999
-0.0523681640625
-0.03240966796875
-0.06683349609375
-0.10107421875
-0.13714599609375
-0.1431884765625
-0.140625
-0.12377929687499997
-0.09027099609374999
-0.0692138671875
-0.05749511718750001
-0.06445312499999999
-0.06701660156249999
-0.06555175781249999
-0.06353759765625
-0.07580566406249999
-0.07598876953125
-0.069580078125
-0.05914306640624999
-0.0604248046875
-0.05859375
-0.062255859375
-0.06298828125
-0.05566406249999999
-0.03533935546875
-0.026916503906249997
-0.04687499999999999
-0.0472412109375
-0.03643798828125
-0.04339599609375
-0.05328369140625
-0.0377197265625
-0.03222656249999999
-0.03533935546875
-0.03533935546875
-0.04138183593749999
-0.0421142578125
-0.03955078124999999
-0.031494140625
-0.024169921874999997
-0.0380859375
-0.052734375
-0.0626220703125
-0.05767822265625
-0.06298828125
-0.05529785156249999
-0.04541015625
-0.0263671875
-0.016845703124999997
-0.0172119140625
-0.03424072265625
-0.0472412109375
-0.0699462890625
-0.087158203125
-0.08642578125
-0.08953857421874999
-0.1116943359375
-0.10638427734374999
-0.09796142578125
-0.090087890625
-0.09484863281249999
-0.08074951171875
-0.076171875
-0.09063720703125
-0.08953857421874999
-0.08056640625
-0.08807373046875
-0.09118652343749999
-0.07379150390624999
-0.06097412109374999
-0.0604248046875
-0.079833984375
-0.08514404296875
-0.09118652343749999
-0.10528564453125
-0.10272216796875
-0.09100341796874999
-0.087158203125
-0.0845947265625
-0.07470703125
-0.05987548828124999
-0.04541015625
-0.0399169921875
-0.0421142578125
-0.0450439453125
-0.04541015625
-0.04687499999999999
-0.04248046875
-0.04156494140624999
-0.0362548828125
-0.03369140624999999
-0.03790283203124999
-0.052734375
-0.047607421875
-0.04559326171874999
-0.03881835937499999
-0.0355224609375
-0.022155761718749997
-0.029663085937500003
-0.04522705078124999
-0.03717041015625
-0.01318359375
-0.0032958984375
-0.00933837890625
-0.025634765625
-0.0238037109375
-0.0146484375
-0.012451171875
-0.006042480468749999
-0.004943847656249999
-0.0020141601562499996
-0.00732421875
-0.005859374999999999
-0.00439453125
-0.0146484375
-0.015014648437499998
-0.0054931640625
-0.0025634765624999996
0.0025634765624999996
0.008422851562499998
0.01007080078125
0.00677490234375
-0.00384521484375
-0.011718749999999998
-0.01666259765625
-0.01373291015625
-0.006042480468749999
0.0146484375
0.03186035156249999
0.03918457031249999
0.04541015625
0.05419921875
0.0450439453125
0.04797363281249999
0.05419921875
0.05566406249999999
0.05218505859375
0.0362548828125
0.019775390624999997
0.006042480468749999
-0.0007324218749999999
-0.0025634765624999996
0.0010986328125
-0.008056640624999998
-0.0113525390625
-0.0087890625
-0.00732421875
-0.00531005859375
0.00018310546874999997
0.014099121093749998
0.00732421875
-0.00640869140625
-0.006042480468749999
0.010986328125
0.01812744140625
0.015197753906249998
-0.008056640624999998
-0.021240234375
-0.01300048828125
-0.00531005859375
0.013916015624999998
0.01995849609375
0.018310546875
0.0054931640625
-0.01318359375
-0.0007324218749999999
0.004943847656249999
0.011535644531249998
0.0164794921875
0.01629638671875
0.01116943359375
0.0047607421875
-0.00531005859375
-0.024353027343749997
-0.0380859375
-0.04101562499999999
-0.035888671875
-0.015380859375
0.006958007812499999
0.04248046875
0.0860595703125
0.13201904296875
0.18969726562499997
0.267333984375
0.33343505859374994
0.400634765625
0.4793701171875
0.5126953125
0.529541015625
0.5306396484374999
0.52239990234375
0.443115234375
0.27392578125
0.06866455078125
-0.10766601562499999
-0.19866943359375
-0.23785400390625
-0.2200927734375
-0.19628906249999997
-0.177978515625
-0.18200683593749997
-0.1688232421875
-0.15252685546874997
-0.13055419921875003
-0.11114501953125
-0.09484863281249999
-0.08551025390625
-0.07745361328125
-0.0596923828125
-0.030395507812499997
-0.019592285156249997
-0.007507324218749999
0.00531005859375
0.00823974609375
0.00787353515625
-0.00311279296875
0.00732421875
0.01666259765625
-0.00036621093749999995
-0.00054931640625
0.009521484375
0.0157470703125
0.013366699218749998
0.012451171875
0.015014648437499998
0.030944824218749993
0.0380859375
0.023437499999999997
0.013916015624999998
0.00897216796875
0.002197265625
-0.027099609375
-0.06610107421875
-0.065185546875
-0.037353515625
-0.04486083984375
-0.04962158203125
-0.03350830078124999
0.010986328125
0.0260009765625
0.0091552734375
0.006591796875
0.00897216796875
0.0012817382812499998
-0.00439453125
0.0034790039062499996
0.01995849609375
0.01922607421875
0.028747558593750003
0.02838134765625
0.0087890625
0.00018310546874999997
0.0029296874999999996
0.015930175781249997
0.0012817382812499998
-0.0010986328125
0.0020141601562499996
-0.004943847656249999
-0.00054931640625
0.010437011718749998
0.02655029296875
0.0260009765625
0.022155761718749997
0.024536132812499997
0.03369140624999999
0.0384521484375
0.04614257812499999
0.04595947265625
0.037353515625
0.026916503906249997
0.0263671875
0.0380859375
0.05419921875
0.0633544921875
0.06866455078125
0.06536865234375
0.06738281249999999
0.06701660156249999
0.0611572265625
0.06207275390625001
0.069580078125
0.07305908203124999
0.08367919921875
0.079833984375
0.08020019531249999
0.094482421875
0.1036376953125
0.10748291015625
0.10107421875
0.09851074218749999
0.10784912109375
0.1014404296875
0.09429931640625
0.0908203125
0.09246826171875
0.100341796875
0.10949707031249999
0.1153564453125
0.11279296874999999
0.1083984375
0.09613037109375
0.09466552734375
0.10272216796875
0.1036376953125
0.0933837890625
0.0845947265625
0.0970458984375
0.11151123046874999
0.0845947265625
0.0787353515625
0.08477783203124999
0.08551025390625
0.08093261718749999
0.08056640625
0.08020019531249999
0.07232666015625
0.06884765625
0.07012939453124999
0.06353759765625
0.0531005859375
0.05364990234375
0.05419921875
0.04156494140624999
0.02984619140625
0.01080322265625
-0.0020141601562499996
-0.010437011718749998
-0.01318359375
-0.006958007812499999
-0.00897216796875
-0.01904296875
-0.04248046875
-0.05346679687499999
-0.04339599609375
-0.035888671875
-0.035888671875
-0.0377197265625
-0.04962158203125
-0.05511474609374999
-0.06646728515625
-0.07379150390624999
-0.0736083984375
-0.075439453125
-0.06738281249999999
-0.07177734375
-0.062255859375
-0.04705810546874999
-0.04248046875
-0.047607421875
-0.0523681640625
-0.0589599609375
-0.06463623046875
-0.0692138671875
-0.05987548828124999
-0.03717041015625
-0.01666259765625
0.0007324218749999999
0.003662109375
0.0260009765625
0.04101562499999999
0.03350830078124999
0.030395507812499997
0.020324707031249997
0.00274658203125
-0.013916015624999998
-0.01300048828125
-0.0106201171875
-0.01080322265625
-0.00531005859375
0.00384521484375
-0.0014648437499999998
-0.01373291015625
-0.023437499999999997
-0.020324707031249997
-0.0179443359375
-0.005859374999999999
0.0106201171875
0.01263427734375
0.0087890625
0.006042480468749999
0.0012817382812499998
0.00640869140625
0.0018310546875
-0.00732421875
-0.010986328125
-0.021240234375
-0.029663085937500003
-0.034423828125
-0.04156494140624999
-0.04064941406249999
-0.035888671875
-0.03277587890624999
-0.03131103515625
-0.0311279296875
-0.02984619140625
-0.02655029296875
-0.02508544921875
-0.0252685546875
-0.017028808593749997
-0.013366699218749998
-0.025817871093749997
-0.03643798828125
-0.04083251953124999
-0.0384521484375
-0.0439453125
-0.04174804687499999
-0.04010009765624999
-0.03460693359375
-0.026733398437499997
-0.0223388671875
-0.019775390624999997
-0.00457763671875
0.00091552734375
0.0029296874999999996
-0.00036621093749999995
0.00439453125
0.00164794921875
-0.004211425781249999
-0.0032958984375
0.004943847656249999
0.009704589843749998
0.007507324218749999
0.00677490234375
-0.00238037109375
-0.00823974609375
-0.00439453125
0.003662109375
0.00897216796875
0.00274658203125
-0.003662109375
0.0054931640625
0.0106201171875
0.0135498046875
0.017578125
0.01776123046875
0.013916015624999998
0.01904296875
0.020874023437499997
0.020507812499999997
0.01904296875
0.0201416015625
0.019775390624999997
0.01263427734375
0.010253906249999998
0.0128173828125
0.027832031249999997
0.028015136718749997
0.032958984375
0.0399169921875
0.0380859375
0.0347900390625
0.029296875
0.017578125
0.02178955078125
0.031494140625
0.028015136718749997
0.0289306640625
0.03204345703125
0.037353515625
0.029113769531249997
0.0146484375
0.012084960937499998
0.01300048828125
0.015197753906249998
0.0142822265625
0.015930175781249997
0.02545166015625
0.0274658203125
0.03131103515625
0.027648925781249997
0.010986328125
0.0010986328125
-0.010986328125
-0.03021240234375
-0.04010009765624999
-0.04083251953124999
-0.040283203125
-0.0380859375
-0.03240966796875
-0.0186767578125
-0.0142822265625
-0.020874023437499997
-0.0164794921875
-0.002197265625
0.012084960937499998
0.019409179687499997
0.029113769531249997
0.0421142578125
0.040283203125
0.03881835937499999
0.04907226562499999
0.05639648437499999
0.0589599609375
0.05419921875
0.0450439453125
0.03698730468749999
0.03222656249999999
0.03753662109375
0.043212890625
0.04193115234375
0.04998779296875
0.05035400390625
0.0501708984375
0.04870605468749999
0.03717041015625
0.029296875
0.020690917968749997
0.01904296875
0.020690917968749997
0.005859374999999999
-0.00567626953125
-0.007507324218749999
-0.01318359375
-0.0252685546875
-0.02252197265625
-0.01995849609375
-0.020507812499999997
-0.0128173828125
-0.006591796875
0.00274658203125
0.018310546875
0.010253906249999998
0.0014648437499999998
-0.006591796875
-0.013916015624999998
-0.012451171875
-0.012451171875
-0.00823974609375
-0.0062255859375
-0.014099121093749998
-0.01885986328125
-0.0087890625
0.0087890625
0.016845703124999997
0.0263671875
0.02490234375
0.010986328125
0.002197265625
-0.00787353515625
-0.0179443359375
-0.0325927734375
-0.04486083984375
-0.04650878906249999
-0.032958984375
-0.00787353515625
0.0263671875
0.07836914062499999
0.14172363281249997
0.20526123046874997
0.27484130859375
0.3387451171875
0.4031982421875
0.46893310546874994
0.5152587890624999
0.55462646484375
0.592529296875
0.6060791015625
0.5943603515625
0.5134277343749999
0.33544921875
0.12487792968749999
-0.026733398437499997
-0.1109619140625
-0.14501953125
-0.12762451171874997
-0.10931396484375
-0.09429931640625
-0.087890625
-0.08093261718749999
-0.0732421875
-0.05529785156249999
-0.0380859375
-0.025634765625
-0.020874023437499997
-0.017578125
-0.010986328125
-0.009704589843749998
-0.01885986328125
-0.02362060546875
-0.02618408203125
-0.02838134765625
-0.025634765625
-0.0238037109375
-0.02545166015625
-0.0260009765625
-0.024169921874999997
-0.0263671875
-0.0289306640625
-0.02655029296875
-0.035888671875
-0.040283203125
-0.028015136718749997
-0.02618408203125
-0.02252197265625
-0.014099121093749998
-0.011535644531249998
-0.01812744140625
-0.018493652343749997
-0.01556396484375
-0.0113525390625
-0.0087890625
-0.010253906249999998
-0.01318359375
-0.018310546875
-0.016845703124999997
-0.006591796875
0.0025634765624999996
0.0087890625
0.017028808593749997
0.008056640624999998
0.006042480468749999
0.00311279296875
0.004211425781249999
0.01373291015625
0.0260009765625
0.03204345703125
0.03460693359375
0.0377197265625
0.04833984374999999
0.06005859374999999
0.05548095703125
0.05035400390625
0.050537109375
0.05291748046875
0.05291748046875
0.06079101562499999
0.06573486328125
0.06811523437499999
0.0589599609375
0.05639648437499999
0.05731201171874999
0.06079101562499999
0.06500244140625
0.05767822265625
0.05108642578125
0.0596923828125
0.06738281249999999
0.071044921875
0.07177734375
0.08056640625
0.07781982421875
0.06060791015625
0.05566406249999999
0.05749511718750001
0.0633544921875
0.072509765625
0.069580078125
0.0567626953125
0.05419921875
0.05822753906249999
0.05731201171874999
0.06280517578125
0.0750732421875
0.08148193359375
0.0728759765625
0.0615234375
0.0611572265625
0.05694580078124999
0.0494384765625
0.04962158203125
0.047607421875
0.04907226562499999
0.06445312499999999
0.0692138671875
0.07177734375
0.07763671874999999
0.07562255859374999
0.06829833984374999
0.06573486328125
0.07763671874999999
0.08880615234375
0.09027099609374999
0.07946777343749999
0.06427001953125
0.0596923828125
0.0589599609375
0.066650390625
0.08129882812499999
0.09320068359375
0.10089111328125
0.09869384765624999
0.09484863281249999
0.09173583984375
0.09228515624999999
0.087890625
0.076171875
0.06298828125
0.0523681640625
0.04632568359375
0.0472412109375
0.05749511718750001
0.047698974609375
0.0062255859375
-0.0087890625
-0.010253906249999998
-0.006958007812499999
-0.006591796875
-0.00823974609375
-0.0157470703125
-0.0384521484375
-0.05511474609374999
-0.066650390625
-0.0743408203125
-0.08001708984375
-0.07946777343749999
-0.0750732421875
-0.0604248046875
-0.04779052734374999
-0.0439453125
-0.0523681640625
-0.07012939453124999
-0.079833984375
-0.075439453125
-0.076171875
-0.09136962890625
-0.087158203125
-0.0787353515625
-0.069580078125
-0.07305908203124999
-0.09100341796874999
-0.10308837890624999
-0.09942626953124999
-0.09228515624999999
-0.10015869140625
-0.09118652343749999
-0.06353759765625
-0.0545654296875
-0.0611572265625
-0.0703125
-0.07598876953125
-0.07269287109374999
-0.072509765625
-0.075439453125
-0.06884765625
-0.04870605468749999
-0.024169921874999997
0.00036621093749999995
-0.004211425781249999
-0.02984619140625
-0.047607421875
-0.05694580078124999
-0.061889648437499986
-0.05859375
-0.052001953125
-0.05566406249999999
-0.0736083984375
-0.0908203125
-0.09136962890625
-0.087890625
-0.084228515625
-0.072509765625
-0.050537109375
-0.01904296875
0.005859374999999999
0.0179443359375
0.0172119140625
-0.0157470703125
-0.043212890625
-0.052001953125
-0.0615234375
-0.054931640625
-0.0567626953125
-0.08258056640625
-0.1336669921875
-0.154541015625
-0.14044189453124997
-0.13348388671875
-0.14190673828125
-0.13916015625
-0.1212158203125
-0.11297607421875
-0.126708984375
-0.13916015625
-0.128173828125
-0.087158203125
-0.0589599609375
-0.065185546875
-0.07342529296875
-0.0703125
-0.091552734375
-0.11242675781249999
-0.12396240234375001
-0.1256103515625
-0.126708984375
-0.123046875
-0.1080322265625
-0.09979248046875
-0.0780029296875
-0.0589599609375
-0.04870605468749999
-0.05694580078124999
-0.06372070312499999
-0.06005859374999999
-0.06500244140625
-0.06445312499999999
-0.0626220703125
-0.0875244140625
-0.11260986328125
-0.1263427734375
-0.1204833984375
-0.102081298828125
-0.08642578125
-0.0772705078125
-0.084228515625
-0.0845947265625
-0.0882568359375
-0.07269287109374999
-0.04632568359375
-0.0355224609375
-0.03698730468749999
-0.043212890625
-0.0435791015625
-0.05346679687499999
-0.05932617187500001
-0.06427001953125
-0.071044921875
-0.0699462890625
-0.07122802734374999
-0.0732421875
-0.07946777343749999
-0.07653808593749999
-0.05712890625
-0.06005859374999999
-0.04925537109374999
-0.024169921874999997
-0.0091552734375
-0.01629638671875
-0.06372070312499999
-0.0882568359375
-0.08697509765625
-0.076171875
-0.0750732421875
-0.0684814453125
-0.07452392578124999
-0.08404541015624999
-0.08020019531249999
-0.079833984375
-0.07470703125
-0.062255859375
-0.05291748046875
-0.05877685546875
-0.05584716796875
-0.06005859374999999
-0.0615234375
-0.06829833984374999
-0.07891845703125
-0.07653808593749999
-0.06976318359375
-0.05749511718750001
-0.05035400390625
-0.03662109375
-0.0347900390625
-0.0333251953125
-0.03698730468749999
-0.04339599609375
-0.05603027343749999
-0.06628417968749999
-0.0703125
-0.07122802734374999
-0.076171875
-0.07397460937499999
-0.076904296875
-0.0860595703125
-0.08001708984375
-0.07086181640624999
-0.07397460937499999
-0.07470703125
-0.0732421875
-0.08477783203124999
-0.0849609375
-0.07470703125
-0.072509765625
-0.08038330078124999
-0.0849609375
-0.076171875
-0.07342529296875
-0.07177734375
-0.0699462890625
-0.06500244140625
-0.04119873046875
-0.05255126953124999
-0.06591796875
-0.06390380859375
-0.061889648437499986
-0.06427001953125
-0.0743408203125
-0.08551025390625
-0.091552734375
-0.09374999999999999
-0.0732421875
-0.0684814453125
-0.10418701171874999
-0.12615966796874997
-0.14611816406249997
-0.16809082031249997
-0.1600341796875
-0.1446533203125
-0.10675048828125
-0.06353759765625
-0.00164794921875
0.052001953125
0.08935546875
0.154541015625
0.2164306640625
0.29516601562499994
0.37591552734375
0.41748046875
0.4573974609375
0.49401855468749994
0.49108886718750006
0.44293212890625
0.29589843749999994
0.076904296875
-0.16278076171875
-0.29278564453125
-0.33929443359374994
-0.32281494140625
-0.287109375
-0.25360107421875
-0.26037597656249994
-0.2713623046875
-0.2633056640625
-0.240966796875
-0.22045898437499997
-0.19738769531249997
-0.17999267578125
-0.173583984375
-0.1578369140625
-0.15820312499999997
-0.1611328125
-0.16314697265624997
-0.176513671875
-0.17596435546874997
-0.16314697265624997
-0.16900634765624997
-0.18621826171874997
-0.1728515625
-0.1549072265625
-0.14739990234375
-0.14501953125
-0.16094970703125
-0.15582275390625
-0.1387939453125
-0.1336669921875
-0.16259765624999997
-0.1922607421875
-0.1929931640625
-0.1900634765625
-0.18109130859374997
-0.19372558593749997
-0.20123291015624997
-0.19866943359375
-0.19372558593749997
-0.18768310546875
-0.18896484375
-0.1922607421875
-0.21038818359374997
-0.2296142578125
-0.251953125
-0.25341796875
-0.2457275390625
-0.23016357421874997
-0.2281494140625
-0.24023437499999997
-0.24829101562500003
-0.25579833984375
-0.25360107421875
-0.24737548828125
-0.22430419921875
-0.20397949218749997
-0.2021484375
-0.20599365234375
-0.20654296874999997
-0.2032470703125
-0.185302734375
-0.1739501953125
-0.1724853515625
-0.1885986328125
-0.1893310546875
-0.17706298828125
-0.1585693359375
-0.17523193359375
-0.2069091796875
-0.2362060546875
-0.2486572265625
-0.23785400390625
-0.2252197265625
-0.22760009765624997
-0.23034667968749997
-0.2069091796875
-0.19281005859375
-0.20361328125
-0.1966552734375
-0.1856689453125
-0.18255615234375
-0.1776123046875
-0.19757080078124997
-0.201416015625
-0.20361328125
-0.220733642578125
-0.211669921875
-0.20397949218749997
-0.1995849609375
-0.1842041015625
-0.18896484375
-0.18090820312499997
-0.1728515625
-0.1787109375
-0.1904296875
-0.18749999999999997
-0.18511962890625
-0.19537353515625
-0.19793701171875
-0.1951904296875
-0.17138671875
-0.15069580078125
-0.15142822265625
-0.148681640625
-0.14978027343749997
-0.14593505859375
-0.13659667968749997
-0.12341308593749999
-0.11370849609374999
-0.1259765625
-0.13403320312499997
-0.13018798828124997
-0.14117431640624997
-0.1263427734375
-0.1175537109375
-0.10327148437499999
-0.11370849609374999
-0.14520263671874997
-0.17980957031249997
-0.173583984375
-0.17687988281249997
-0.181640625
-0.18017578125
-0.18969726562499997
-0.21075439453125
-0.22119140624999997
-0.2252197265625
-0.22805786132812497
-0.22796630859375
-0.22357177734375
-0.23638916015625
-0.25927734375
-0.27337646484375
-0.28546142578125
-0.29608154296874994
-0.30065917968749994
-0.30523681640624994
-0.30853271484375
-0.30871582031249994
-0.30963134765624994
-0.3076171875
-0.29791259765624994
-0.29425048828125
-0.29516601562499994
-0.306884765625
-0.31695556640625
-0.30963134765624994
-0.29516601562499994
-0.28619384765625
-0.29534912109374994
-0.31347656249999994
-0.32244873046874994
-0.31695556640625
-0.32281494140625
-0.34094238281249994
-0.3497314453125
-0.34130859375
-0.33251953124999994
-0.33819580078124994
-0.344970703125
-0.34423828125
-0.3475341796875
-0.33892822265624994
-0.3321533203125
-0.32061767578124994
-0.30194091796875
-0.29077148437499994
-0.30413818359375
-0.3065185546875
-0.29461669921875
-0.27777099609374994
-0.26715087890625
-0.277587890625
-0.29296875
-0.31292724609375
-0.32757568359375
-0.33251953124999994
-0.3358154296875
-0.342041015625
-0.33892822265624994
-0.33105468749999994
-0.32373046874999994
-0.31823730468749994
-0.33618164062499994
-0.34295654296875
-0.33636474609374994
-0.32904052734374994
-0.309814453125
-0.3256988525390625
-0.33929443359374994
-0.34130859375
-0.3424072265625
-0.3387451171875
-0.3446044921875
-0.33453369140625
-0.32629394531249994
-0.34259033203125
-0.33966064453125
-0.33709716796875
-0.33966064453125
-0.3515167236328125
-0.35247802734375
-0.3431396484375
-0.34002685546875
-0.32629394531249994
-0.306884765625
-0.32867431640625
-0.34735107421875
-0.33013916015625
-0.32794189453124994
-0.3394775390625
-0.33755493164062494
-0.3321533203125
-0.33105468749999994
-0.33105468749999994
-0.32794189453124994
-0.32244873046874994
-0.32208251953125
-0.32025146484375
-0.31146240234375
-0.29937744140625
-0.298828125
-0.30450439453125
-0.30450439453125
-0.30560302734375
-0.30615234374999994
-0.2984619140625
-0.3043212890625
-0.31805419921874994
-0.322265625
-0.31329345703124994
-0.3094482421875
-0.31072998046874994
-0.312744140625
-0.298828125
-0.28784179687499994
-0.27703857421875
-0.28765869140624994
-0.30120849609375
-0.31494140625
-0.3065185546875
-0.30029296875
-0.3076171875
-0.30596923828124994
-0.3072509765625
-0.29791259765624994
-0.29077148437499994
-0.2911376953125
-0.28564453125
-0.275390625
-0.27667236328125
-0.3131103515625
-0.32666015624999994
-0.31988525390625
-0.3167724609375
-0.30029296875
-0.28527832031249994
-0.28216552734374994
-0.2783203125
-0.27520751953124994
-0.29681396484375
-0.30523681640624994
-0.29864501953124994
-0.3013916015625
-0.30267333984375
-0.3057861328125
-0.306884765625
-0.30706787109375
-0.29516601562499994
-0.2911376953125
-0.27703857421875
-0.274658203125
-0.26715087890625
-0.25689697265625
-0.26220703124999994
-0.29040527343749994
-0.28051757812499994
-0.2713623046875
-0.2666015625
-0.265869140625
-0.24060058593749997
-0.2171630859375
-0.20654296874999997
-0.211669921875
-0.22283935546875
-0.23291015624999997
-0.24188232421875
-0.230712890625
-0.20452880859375
-0.17321777343749997
-0.15692138671874997
-0.20452880859375
-0.21826171875
-0.21203613281249997
-0.21020507812499997
-0.2080078125
-0.21240234375
-0.2186279296875
-0.21112060546874997
-0.22357177734375
-0.2427978515625
-0.24133300781249997
-0.2442626953125
-0.23162841796875
-0.22393798828124997
-0.22833251953124997
-0.26898193359375
-0.28857421875
-0.2786865234375
-0.267333984375
-0.25048828125
-0.24884033203125
-0.23638916015625
-0.223388671875
-0.21533203124999997
-0.21899414062499997
-0.2135009765625
-0.20928955078125
-0.22924804687499997
-0.232177734375
-0.22631835937499997
-0.22320556640625
-0.2222900390625
-0.2164306640625
-0.22045898437499997
-0.2362060546875
-0.242431640625
-0.24261474609375
-0.24993896484374997
-0.2607421875
-0.254150390625
-0.25488281249999994
-0.26348876953125
-0.23474121093749997
-0.18402099609375
-0.13018798828124997
-0.05712890625
0.0439453125
0.12890624999999997
0.17138671875
0.223388671875
0.275390625
0.3204345703125
0.3555908203125
0.40191650390625
0.399169921875
0.311279296875
0.13677978515625
-0.06372070312499999
-0.20764160156249997
-0.30670166015625
-0.355224609375
-0.37646484374999994
-0.38616943359375
-0.37463378906249994
-0.355224609375
-0.33911132812499994
-0.322265625
-0.29718017578125
-0.27410888671875
-0.26568603515625
-0.26971435546875
-0.2742919921875
-0.24957275390624997
-0.21899414062499997
-0.214599609375
-0.22686767578124997
-0.21588134765625
-0.2054443359375
-0.199951171875
-0.186767578125
-0.17541503906249997
-0.18310546875
-0.19189453124999997
-0.19830322265624997
-0.21240234375
-0.18969726562499997
-0.18475341796874997
-0.1915283203125
-0.20306396484375
-0.20910644531249997
-0.20764160156249997
-0.20397949218749997
-0.1915283203125
-0.17742919921875
-0.175048828125
-0.16204833984375
-0.15545654296874997
-0.16259765624999997
-0.1600341796875
-0.141357421875
-0.12615966796874997
-0.12341308593749999
-0.126708984375
-0.122314453125
-0.1259765625
-0.11517333984374999
-0.1007080078125
-0.091552734375
-0.09173583984375
-0.08697509765625
-0.08734130859374999
-0.0992431640625
-0.1142578125
-0.1142578125
-0.10693359374999999
-0.10693359374999999
-0.1007080078125
-0.071044921875
-0.050537109375
-0.05401611328125
-0.05548095703125
-0.05364990234375
-0.06573486328125
-0.08367919921875
-0.072509765625
-0.05694580078124999
-0.0450439453125
-0.024536132812499997
-0.0311279296875
-0.05383300781249999
-0.07196044921874999
-0.07708740234375
-0.06079101562499999
-0.0589599609375
-0.072509765625
-0.079833984375
-0.07763671874999999
-0.0721435546875
-0.07653808593749999
-0.07159423828125
-0.0615234375
-0.0494384765625
-0.03662109375
-0.025634765625
-0.03973388671874999
-0.0640869140625
-0.06811523437499999
-0.05529785156249999
-0.05603027343749999
-0.06243896484374999
-0.06390380859375
-0.05950927734375
-0.05364990234375
-0.04687499999999999
-0.04541015625
-0.03662109375
-0.027099609375
-0.022155761718749997
-0.02252197265625
-0.019592285156249997
-0.011718749999999998
-0.005859374999999999
-0.006042480468749999
0.0062255859375
0.0263671875
0.03186035156249999
0.020690917968749997
0.016845703124999997
0.0223388671875
0.023437499999999997
0.03662109375
0.04669189453125
0.04888916015624999
0.06353759765625
0.06976318359375
0.06298828125
0.05383300781249999
0.052734375
0.0439453125
0.04010009765624999
0.04833984374999999
0.0457763671875
0.04669189453125
0.0399169921875
0.027832031249999997
0.028747558593750003
0.03717041015625
0.03826904296874999
0.0260009765625
0.02142333984375
0.0106201171875
-0.005126953124999999
-0.010986328125
-0.01446533203125
-0.01904296875
-0.0439453125
-0.0596923828125
-0.06372070312499999
-0.071044921875
-0.069580078125
-0.072509765625
-0.0714111328125
-0.08148193359375
-0.0875244140625
-0.076904296875
-0.0684814453125
-0.0699462890625
-0.07012939453124999
-0.061889648437499986
-0.06591796875
-0.08404541015624999
-0.08331298828125
-0.07855224609375
-0.0838623046875
-0.087890625
-0.0684814453125
-0.05841064453125001
-0.0384521484375
-0.03424072265625
-0.06280517578125
-0.05859375
-0.066650390625
-0.06683349609375
-0.05035400390625
-0.052734375
-0.057861328125
-0.0498046875
-0.04138183593749999
-0.0274658203125
-0.0421142578125
-0.0509033203125
-0.08477783203124999
-0.06591796875
-0.030029296874999997
-0.0012817382812499998
-0.019409179687499997
-0.025634765625
-0.0648193359375
-0.0867919921875
-0.06298828125
-0.0362548828125
-0.023986816406249997
-0.028564453125
-0.027832031249999997
-0.023986816406249997
-0.023986816406249997
-0.028198242187499997
-0.01995849609375
-0.01080322265625
-0.017578125
-0.013366699218749998
0.0014648437499999998
-0.00164794921875
0.0047607421875
0.016845703124999997
0.0179443359375
0.01080322265625
0.009521484375
0.0076904296875
0.00274658203125
-0.01446533203125
-0.0029296874999999996
0.0029296874999999996
-0.0054931640625
-0.0007324218749999999
0.0076904296875
0.017028808593749997
0.04339599609375
0.0531005859375
0.04998779296875
0.0010986328125
-0.00457763671875
0.008422851562499998
0.01776123046875
0.025634765625
0.034423828125
0.03717041015625
0.0333251953125
0.0347900390625
0.04431152343749999
0.0457763671875
0.03662109375
0.027832031249999997
0.019775390624999997
0.017028808593749997
0.016845703124999997
0.015197753906249998
0.019592285156249997
0.043212890625
0.05749511718750001
0.054931640625
0.04797363281249999
0.04797363281249999
0.05035400390625
0.04687499999999999
0.04010009765624999
0.03936767578125
0.035888671875
0.031494140625
0.0439453125
0.04412841796875
0.03680419921875
0.04541015625
0.05255126953124999
0.05749511718750001
0.0706787109375
0.091552734375
0.08093261718749999
0.0523681640625
0.03369140624999999
0.03131103515625
0.04559326171874999
0.07580566406249999
0.0780029296875
0.06060791015625
0.06079101562499999
0.06079101562499999
0.0703125
0.0684814453125
0.05163574218749999
0.0509033203125
0.05932617187500001
0.07177734375
0.0732421875
0.08312988281249999
0.08056640625
0.072509765625
0.0611572265625
0.0457763671875
0.0457763671875
0.05401611328125
0.06445312499999999
0.06719970703125
0.0567626953125
0.04010009765624999
0.024353027343749997
0.03167724609375
0.0589599609375
0.084228515625
0.09118652343749999
0.09649658203125
0.09667968749999999
0.101806640625
0.101806640625
0.10675048828125
0.11682128906250001
0.12341308593749999
0.1431884765625
0.17010498046875
0.18603515624999997
0.18804931640625
0.18457031249999997
0.18402099609375
0.1776123046875
0.15673828124999997
0.12377929687499997
0.126708984375
0.10821533203125
0.09228515624999999
0.07580566406249999
0.05383300781249999
0.05255126953124999
0.06591796875
0.07379150390624999
0.07910156249999999
0.08807373046875
0.09246826171875
0.11444091796875
0.12725830078125
0.123046875
0.12799072265625
0.12139892578125
0.11975097656249999
0.11151123046874999
0.1036376953125
0.10601806640624999
0.1300048828125
0.14666748046874997
0.13311767578125
0.1142578125
0.104736328125
0.090087890625
0.09283447265625
0.11114501953125
0.113525390625
0.11499023437500001
0.11865234375000001
0.1204833984375
0.11883544921874999
0.10272216796875
0.09027099609374999
0.09283447265625
0.11059570312499999
0.11499023437500001
0.12213134765625
0.16314697265624997
0.2142333984375
0.2596435546875
0.314208984375
0.383056640625
0.4500732421875
0.52734375
0.6090087890625
0.6760253906249999
0.7346191406249999
0.791015625
0.8349609375
0.8173828125
0.6844482421875
0.4771728515625
0.29241943359374994
0.16406249999999997
0.07012939453124999
0.03753662109375
0.03186035156249999
0.0325927734375
0.03662109375
0.0509033203125
0.0692138671875
0.0845947265625
0.109130859375
0.1292724609375
0.13256835937499997
0.13916015625
0.13934326171875
0.12286376953125
0.1072998046875
0.11553955078124999
0.139892578125
0.14923095703125
0.14025878906249997
0.139892578125
0.14392089843749997
0.14373779296875
0.13604736328125
0.126708984375
0.1190185546875
0.11132812499999999
0.11022949218749999
0.129638671875
0.1483154296875
0.14739990234375
0.13787841796875
0.12158203124999999
0.12030029296874999
0.1314697265625
0.14190673828125
0.14208984375
0.13494873046875
0.13916015625
0.1435546875
0.14007568359375
0.14025878906249997
0.145751953125
0.145751953125
0.147216796875
0.1446533203125
0.13421630859375003
0.12615966796874997
0.128173828125
0.12451171875
0.12487792968749999
0.1329345703125
0.140625
0.1494140625
0.15673828124999997
0.15142822265625
0.15179443359374997
0.1556396484375
0.17266845703124997
0.1724853515625
0.17431640625
0.1728515625
0.16845703125
0.1614990234375
0.1611328125
0.17376708984375
0.17138671875
0.17779541015625
0.1904296875
0.1907958984375
0.18109130859374997
0.17706298828125
0.18457031249999997
0.1915283203125
0.1900634765625
0.1944580078125
0.19940185546875
0.2069091796875
0.20617675781249997
0.20837402343749997
0.22137451171875
0.23748779296874997
0.24133300781249997
0.23950195312499997
0.23529052734375
0.2318115234375
0.2398681640625
0.23767089843749997
0.22943115234374997
0.24261474609375
0.25836181640625006
0.26495361328124994
0.27520751953124994
0.28344726562499994
0.2666015625
0.25323486328125
0.24169921875
0.23583984375
0.24993896484374997
0.27081298828125
0.267333984375
0.2545166015625
0.26275634765625
0.28820800781249994
0.30029296875
0.29077148437499994
0.2783203125
0.26898193359375
0.27081298828125
0.276123046875
0.2764892578125
0.27996826171875
0.28509521484374994
0.28509521484374994
0.28070068359374994
0.26843261718750006
0.261474609375
0.25250244140625
0.24609375
0.24188232421875
0.23657226562499997
0.23107910156249997
0.22247314453125
0.21221923828125
0.19885253906249997
0.19482421874999997
0.1915283203125
0.17834472656249997
0.1556396484375
0.1494140625
0.15527343749999997
0.1519775390625
0.1431884765625
0.1314697265625
0.1190185546875
0.1080322265625
0.109130859375
0.10638427734374999
0.09594726562499999
0.0845947265625
0.08862304687499999
0.09777832031249999
0.09814453124999999
0.087890625
0.07891845703125
0.06976318359375
0.062255859375
0.05566406249999999
0.04870605468749999
0.04705810546874999
0.043212890625
0.03918457031249999
0.0311279296875
0.0333251953125
0.04174804687499999
0.05126953125
0.066650390625
0.07763671874999999
0.06793212890625
0.05181884765625
0.0435791015625
0.01995849609375
0.019592285156249997
0.0047607421875
0.006591796875
0.0142822265625
0.028747558593750003
0.03424072265625
0.03680419921875
0.03900146484375
0.03277587890624999
0.01812744140625
0.01263427734375
0.020874023437499997
0.03515625
0.03936767578125
0.04083251953124999
0.04412841796875
0.04559326171874999
0.04412841796875
0.03790283203124999
0.0311279296875
0.0216064453125
0.016113281249999997
0.012268066406249998
0.0146484375
0.017578125
0.035888671875
0.054931640625
0.0732421875
0.08807373046875
0.08734130859374999
0.0772705078125
0.07910156249999999
0.08349609374999999
0.090087890625
0.10089111328125
0.1116943359375
0.12506103515625
0.12579345703125
0.1212158203125
0.11132812499999999
0.0970458984375
0.08953857421874999
0.08020019531249999
0.071044921875
0.066650390625
0.0699462890625
0.07177734375
0.06756591796875
0.06280517578125
0.0677490234375
0.07415771484375
0.0732421875
0.0677490234375
0.0677490234375
0.07580566406249999
0.08312988281249999
0.09741210937499999
0.10693359374999999
0.09374999999999999
0.08770751953124999
0.08935546875
0.075439453125
0.0703125
0.07122802734374999
0.0743408203125
0.09411621093749999
0.1072998046875
0.10528564453125
0.10510253906249999
0.11132812499999999
0.10675048828125
0.090087890625
0.0772705078125
0.0772705078125
0.08807373046875
0.0926513671875
0.09521484375
0.085693359375
0.09320068359375
0.1021728515625
0.10638427734374999
0.0999755859375
0.091552734375
0.08697509765625
0.08404541015624999
0.08660888671874999
0.10272216796875
0.109130859375
0.1065673828125
0.10784912109375
0.09228515624999999
0.08642578125
0.10308837890624999
0.1083984375
0.10931396484375
0.10693359374999999
0.10766601562499999
0.10949707031249999
0.11004638671875
0.10858154296875
0.11700439453124999
0.1285400390625
0.12652587890625
0.1314697265625
0.12908935546875
0.11517333984374999
0.11920166015624999
0.12762451171874997
0.1343994140625
0.14080810546875
0.15307617187499997
0.15875244140625
0.1541748046875
0.13824462890625
0.1292724609375
0.1259765625
0.1358642578125
0.1409912109375
0.1387939453125
0.14254760742187497
0.13568115234375
0.140625
0.15161132812499997
0.1611328125
0.17431640625
0.17999267578125
0.17724609374999997
0.1728515625
0.1688232421875
0.16424560546875
0.1571044921875
0.1519775390625
0.16809082031249997
0.16552734374999997
0.14978027343749997
0.1270751953125
0.12249755859374999
0.13659667968749997
0.14044189453124997
0.12982177734375
0.12158203124999999
0.1300048828125
0.135498046875
0.14794921874999997
0.1629638671875
0.1611328125
0.15985107421875
0.15545654296874997
0.15307617187499997
0.15032958984374997
0.15380859375
0.1614990234375
0.167724609375
0.16937255859375
0.17175292968749997
0.15838623046875
0.15948486328124997
0.1651611328125
0.16259765624999997
0.1673583984375
0.16351318359375
0.16186523437499997
0.16259765624999997
0.14904785156249997
0.13476562499999997
0.11059570312499999
0.106201171875
0.12341308593749999
0.140625
0.17431640625
0.21533203124999997
0.267333984375
0.3218994140625
0.3878173828125
0.46142578125
0.5364990234375
0.6148681640625
0.6806030273437499
0.7203369140625
0.7421264648437499
0.7642822265624999
0.7789306640624999
0.72509765625
0.53448486328125
0.27630615234375
0.023437499999999997
-0.119384765625
-0.15380859375
-0.11846923828124999
-0.07763671874999999
-0.03680419921875
-0.0142822265625
0.002197265625
0.01318359375
0.0380859375
0.0567626953125
0.065185546875
0.08276367187499999
0.087890625
0.08807373046875
0.09301757812499999
0.1036376953125
0.11022949218749999
0.11700439453124999
0.12194824218749999
0.1153564453125
0.09484863281249999
0.09576416015625
0.0932464599609375
0.09576416015625
0.10748291015625
0.11462402343749999
0.1160888671875
0.12652587890625
0.13201904296875
0.1300048828125
0.10949707031249999
0.10949707031249999
0.10675048828125
0.11315917968749999
0.11242675781249999
0.11022949218749999
0.1029052734375
0.106201171875
0.11810302734375
0.12249755859374999
0.12451171875
0.13238525390625
0.13238525390625
0.11810302734375
0.11315917968749999
0.1212158203125
0.1373291015625
0.15032958984374997
0.14996337890625
0.14739990234375
0.14392089843749997
0.13916015625
0.13916015625
0.14996337890625
0.16186523437499997
0.1585693359375
0.1494140625
0.13623046874999997
0.1322021484375
0.1351318359375
0.14758300781249997
0.15142822265625
0.15380859375
0.15472412109375
0.14978027343749997
0.1494140625
0.15234375
0.15802001953124997
0.16845703125
0.1710205078125
0.17266845703124997
0.169189453125
0.16534423828124997
0.16644287109375
0.17907714843749997
0.18969726562499997
0.19372558593749997
0.2054443359375
0.20361328125
0.21533203124999997
0.2178955078125
0.21405029296874997
0.2186279296875
0.2244873046875
0.22998046875000003
0.23236083984375
0.2281494140625
0.21826171875
0.22430419921875
0.235107421875
0.24627685546875
0.251953125
0.2537841796875
0.24938964843749997
0.24609375
0.2545166015625
0.28051757812499994
0.2838134765625
0.25927734375
0.24829101562500003
0.251220703125
0.254150390625
0.25689697265625
0.26422119140625
0.27630615234375
0.28179931640625
0.275390625
0.2625732421875
0.263671875
0.2720947265625
0.2713623046875
0.2607421875
0.2625732421875
0.28326416015624994
0.28765869140624994
0.27795410156249994
0.26770019531249994
0.257080078125
0.2508544921875
0.25177001953125
0.255615234375
0.25488281249999994
0.242431640625
0.232177734375
0.2259521484375
0.22503662109375
0.21588134765625
0.201416015625
0.18749999999999997
0.18237304687499997
0.17431640625
0.16351318359375
0.15618896484374997
0.1431884765625
0.13659667968749997
0.14501953125
0.1563720703125
0.145751953125
0.1380615234375
0.12286376953125
0.10546875
0.08862304687499999
0.0780029296875
0.0728759765625
0.07049560546875
0.0732421875
0.08129882812499999
0.0845947265625
0.07781982421875
0.0703125
0.06060791015625
0.05749511718750001
0.05584716796875
0.052734375
0.04486083984375
0.04833984374999999
0.05822753906249999
0.05950927734375
0.0648193359375
0.07012939453124999
0.06500244140625
0.05401611328125
0.05566406249999999
0.06170654296874999
0.05511474609374999
0.0531005859375
0.04907226562499999
0.04833984374999999
0.04833984374999999
0.0531005859375
0.05163574218749999
0.04852294921875
0.0472412109375
0.04925537109374999
0.06079101562499999
0.0706787109375
0.07196044921874999
0.0736083984375
0.07836914062499999
0.066650390625
0.05401611328125
0.04742431640624999
0.0501708984375
0.05328369140625
0.06500244140625
0.076171875
0.08020019531249999
0.08038330078124999
0.0860595703125
0.08331298828125
0.06591796875
0.06079101562499999
0.06060791015625
0.057861328125
0.0699462890625
0.08441162109375
0.08477783203124999
0.08074951171875
0.07836914062499999
0.08166503906249999
0.0889892578125
0.07855224609375
0.076904296875
0.079833984375
0.07452392578124999
0.0699462890625
0.07708740234375
0.076171875
0.07342529296875
0.07086181640624999
0.0706787109375
0.07855224609375
0.08514404296875
0.07763671874999999
0.06811523437499999
0.0692138671875
0.06976318359375
0.07708740234375
0.085693359375
0.08129882812499999
0.06811523437499999
0.06738281249999999
0.062255859375
0.05383300781249999
0.05712890625
0.066650390625
0.075439453125
0.0743408203125
0.065185546875
0.05932617187500001
0.0633544921875
0.06738281249999999
0.07672119140625
0.08093261718749999
0.071044921875
0.06060791015625
0.05383300781249999
0.052734375
0.04833984374999999
0.0435791015625
0.03881835937499999
0.0263671875
0.0186767578125
0.02105712890625
0.04046630859374999
0.0472412109375
0.0439453125
0.04650878906249999
0.04669189453125
0.04614257812499999
0.04541015625
0.04248046875
0.03973388671874999
0.03973388671874999
0.04101562499999999
0.0494384765625
0.06866455078125
0.0633544921875
0.03790283203124999
0.026733398437499997
0.030395507812499997
0.0380859375
0.0439453125
0.0457763671875
0.04522705078124999
0.04412841796875
0.047607421875
0.04907226562499999
0.03955078124999999
0.0428466796875
0.05749511718750001
0.06372070312499999
0.069580078125
0.06738281249999999
0.07305908203124999
0.08862304687499999
0.09741210937499999
0.09832763671875
0.09594726562499999
0.1036376953125
0.11206054687499999
0.109130859375
0.09374999999999999
0.09228515624999999
0.09777832031249999
0.0992431640625
0.09814453124999999
0.079833984375
0.0545654296875
0.04101562499999999
0.04101562499999999
0.0439453125
0.04833984374999999
0.05383300781249999
0.04907226562499999
0.04431152343749999
0.044677734375
0.0523681640625
0.05914306640624999
0.06390380859375
0.0615234375
0.05639648437499999
0.06500244140625
0.07910156249999999
0.08587646484374999
0.0838623046875
0.08111572265625
0.08312988281249999
0.08734130859374999
0.091552734375
0.10327148437499999
0.1080322265625
0.0963134765625
0.0908203125
0.1025390625
0.10748291015625
0.091552734375
0.0626220703125
0.04522705078124999
0.04302978515625
0.0523681640625
0.076904296875
0.11993408203125
0.17834472656249997
0.2318115234375
0.29150390625
0.36914062499999994
0.4544677734375
0.5401611328125
0.6174316406249999
0.6659545898437499
0.7119140625
0.7646484374999999
0.8005371093749999
0.7708740234375
0.6049804687499999
0.35449218749999994
0.123046875
-0.020507812499999997
-0.09613037109375
-0.0963134765625
-0.05657958984374999
-0.03405761718749999
-0.05364990234375
-0.0362548828125
-0.02490234375
-0.01629638671875
-0.0054931640625
0.016845703124999997
0.0399169921875
0.06555175781249999
0.075439453125
0.0714111328125
0.06646728515625
0.06591796875
0.0648193359375
0.0633544921875
0.0615234375
0.05731201171874999
0.05804443359375
0.06500244140625
0.0703125
0.0692138671875
0.0648193359375
0.06903076171875
0.06445312499999999
0.06298828125
0.06298828125
0.0604248046875
0.0611572265625
0.05566406249999999
0.0523681640625
0.04541015625
0.04907226562499999
0.06079101562499999
0.06445312499999999
0.072509765625
0.07305908203124999
0.07379150390624999
0.066650390625
0.04852294921875
0.04742431640624999
0.0509033203125
0.0498046875
0.05072021484375
0.06280517578125
0.07415771484375
0.07965087890625
0.08020019531249999
0.08093261718749999
0.08056640625
0.0845947265625
0.08093261718749999
0.076171875
0.0728759765625
0.07708740234375
0.09045410156249999
0.10675048828125
0.10858154296875
0.1036376953125
0.099609375
0.101806640625
0.10766601562499999
0.11187744140625
0.10711669921875
0.09832763671875
0.09466552734375
0.0933837890625
0.09411621093749999
0.09942626953124999
0.11187744140625
0.1292724609375
0.11700439453124999
0.10491943359374999
0.10949707031249999
0.1259765625
0.13238525390625
0.125244140625
0.122314453125
0.126708984375
0.13641357421875
0.147216796875
0.14556884765625
0.1376953125
0.14703369140625
0.15655517578125
0.1556396484375
0.156005859375
0.1585693359375
0.1611328125
0.1611328125
0.1629638671875
0.16131591796875
0.16040039062499997
0.16076660156249997
0.1658935546875
0.176513671875
0.18072509765625
0.1842041015625
0.18969726562499997
0.18914794921874997
0.18731689453124997
0.1922607421875
0.19885253906249997
0.19390869140625
0.18804931640625
0.18457031249999997
0.15966796875
0.1563720703125
0.16186523437499997
0.17010498046875
0.17083740234374997
0.17889404296875
0.17449951171874997
0.18310546875
0.1929931640625
0.1812744140625
0.17047119140624997
0.16864013671875
0.154998779296875
0.14501953125
0.1358642578125
0.1307373046875
0.125244140625
0.12158203124999999
0.1065673828125
0.08880615234375
0.076171875
0.06976318359375
0.07232666015625
0.06298828125
0.05383300781249999
0.0494384765625
0.04174804687499999
0.02984619140625
0.02838134765625
0.0252685546875
0.0263671875
0.0252685546875
0.01666259765625
0.01116943359375
0.0
-0.009704589843749998
-0.017578125
-0.017578125
-0.0113525390625
-0.009704589843749998
-0.0142822265625
-0.01995849609375
-0.01995849609375
-0.022705078125
-0.025634765625
-0.03186035156249999
-0.03076171875
-0.0289306640625
-0.02655029296875
-0.01812744140625
-0.011718749999999998
-0.012268066406249998
-0.01904296875
-0.01812744140625
-0.01812744140625
-0.02197265625
-0.028015136718749997
-0.03533935546875
-0.028198242187499997
-0.0157470703125
-0.010986328125
-0.01922607421875
-0.01885986328125
-0.0062255859375
-0.00036621093749999995
-0.01007080078125
-0.01373291015625
-0.020324707031249997
-0.019775390624999997
-0.020324707031249997
-0.018310546875
-0.019409179687499997
-0.01812744140625
-0.01812744140625
-0.0029296874999999996
0.01318359375
0.020874023437499997
0.0034790039062499996
-0.0263671875
-0.0380859375
-0.04302978515625
-0.0439453125
-0.0421142578125
-0.0311279296875
-0.029113769531249997
-0.0377197265625
-0.0439453125
-0.04138183593749999
-0.03131103515625
-0.03790283203124999
-0.04541015625
-0.03881835937499999
-0.0274658203125
-0.02178955078125
-0.01556396484375
-0.012084960937499998
-0.01904296875
-0.02508544921875
-0.02728271484375
-0.03973388671874999
-0.037353515625
-0.03863525390625
-0.0428466796875
-0.05328369140625
-0.04541015625
-0.028015136718749997
-0.03607177734375
-0.03955078124999999
-0.03918457031249999
-0.03131103515625
-0.020874023437499997
-0.0164794921875
-0.00732421875
-0.015380859375
-0.03973388671874999
-0.03973388671874999
-0.029296875
-0.0179443359375
-0.01007080078125
-0.0091552734375
-0.006042480468749999
-0.0020141601562499996
-0.002197265625
0.0010986328125
0.0020141601562499996
0.0034790039062499996
0.00933837890625
0.024536132812499997
0.02252197265625
0.017028808593749997
0.00439453125
-0.008422851562499998
-0.0032958984375
0.00091552734375
0.0029296874999999996
0.0007324218749999999
-0.00640869140625
0.00164794921875
0.01300048828125
0.00311279296875
-0.004852294921874999
0.00457763671875
0.0142822265625
0.005126953124999999
0.0010986328125
0.006591796875
0.019409179687499997
0.028564453125
0.030944824218749993
0.02288818359375
0.012451171875
0.003662109375
-0.009887695312499998
-0.0146484375
-0.013916015624999998
-0.01300048828125
-0.0106201171875
-0.008056640624999998
0.0
0.01373291015625
0.012084960937499998
0.0025634765624999996
-0.00531005859375
-0.012084960937499998
-0.0172119140625
-0.015197753906249998
-0.013916015624999998
-0.015014648437499998
-0.022705078125
-0.023071289062499997
-0.022705078125
-0.015014648437499998
-0.00714111328125
-0.00567626953125
0.0054931640625
0.02105712890625
0.03973388671874999
0.04998779296875
0.0567626953125
0.05749511718750001
0.04833984374999999
0.04833984374999999
0.05181884765625
0.04614257812499999
0.03717041015625
0.029296875
0.024536132812499997
0.0179443359375
0.01080322265625
0.00860595703125
0.00933837890625
0.013366699218749998
0.022155761718749997
0.019775390624999997
0.005859374999999999
0.009887695312499998
0.012084960937499998
0.0142822265625
0.0172119140625
0.0172119140625
0.011535644531249998
0.00897216796875
0.012268066406249998
0.009521484375
0.012451171875
0.020874023437499997
0.023071289062499997
0.0325927734375
0.0311279296875
0.0263671875
0.024353027343749997
0.025817871093749997
0.026916503906249997
0.0384521484375
0.05346679687499999
0.03918457031249999
0.009521484375
-0.022705078125
-0.0333251953125
-0.0325927734375
-0.04119873046875
-0.03662109375
-0.01080322265625
0.017578125
0.05328369140625
0.10491943359374999
0.16076660156249997
0.23016357421874997
0.3193359375
0.40246582031249994
0.49658203125000006
0.5665283203124999
0.6112060546875
0.65753173828125
0.7078857421874999
0.7119140625
0.5906982421874999
0.39935302734374994
0.1812744140625
0.016845703124999997
-0.09777832031249999
-0.14208984375
-0.13311767578125
-0.12322998046875001
-0.11810302734375
-0.099609375
-0.08276367187499999
-0.05603027343749999
-0.023437499999999997
0.009521484375
0.0333251953125
0.03076171875
0.027832031249999997
0.034423828125
0.02197265625
0.005859374999999999
0.002197265625
0.0047607421875
-0.004211425781249999
-0.00531005859375
-0.0054931640625
-0.003662109375
-0.00054931640625
-0.00640869140625
-0.016113281249999997
-0.0113525390625
0.002197265625
0.0135498046875
0.010253906249999998
0.01116943359375
0.018310546875
0.017578125
0.013916015624999998
0.01885986328125
0.02545166015625
0.019409179687499997
0.010986328125
0.010986328125
0.01080322265625
0.006042480468749999
0.0007324218749999999
0.00238037109375
0.0047607421875
0.004028320312499999
0.00238037109375
0.0025634765624999996
0.00036621093749999995
0.015197753906249998
0.03204345703125
0.03607177734375
0.0421142578125
0.0399169921875
0.03076171875
0.029663085937500003
0.0274658203125
0.0289306640625
0.027099609375
0.0128173828125
0.0054931640625
0.0223388671875
0.03424072265625
0.04101562499999999
0.03515625
0.03607177734375
0.03918457031249999
0.04541015625
0.0567626953125
0.06610107421875
0.05841064453125001
0.06134033203124999
0.07379150390624999
0.08660888671874999
0.08349609374999999
0.07910156249999999
0.0721435546875
0.06976318359375
0.072509765625
0.07305908203124999
0.06445312499999999
0.06701660156249999
0.09558105468749999
0.09100341796874999
0.0875244140625
0.11132812499999999
0.11865234375000001
0.09063720703125
0.06060791015625
0.01116943359375
0.015197753906249998
0.067840576171875
0.09374999999999999
0.09045410156249999
0.07910156249999999
0.08276367187499999
0.085693359375
0.09374999999999999
0.10327148437499999
0.10491943359374999
0.10382080078124999
0.10784912109375
0.10528564453125
0.06811523437499999
0.05511474609374999
0.0772705078125
0.09045410156249999
0.0838623046875
0.07653808593749999
0.08020019531249999
0.100341796875
0.1058349609375
0.10327148437499999
0.10693359374999999
0.10510253906249999
0.10327148437499999
0.08917236328124999
0.07196044921874999
0.07232666015625
0.08166503906249999
0.0706787109375
0.04431152343749999
0.029663085937500003
0.027832031249999997
0.0377197265625
0.0450439453125
0.03918457031249999
0.03186035156249999
0.03186035156249999
0.034423828125
0.034423828125
0.027832031249999997
0.01812744140625
0.0029296874999999996
-0.0106201171875
-0.011718749999999998
-0.010253906249999998
-0.013366699218749998
-0.04229736328125
-0.04595947265625
-0.05566406249999999
-0.05712890625
-0.05181884765625
-0.0545654296875
-0.0567626953125
-0.0604248046875
-0.05657958984374999
-0.04522705078124999
-0.0421142578125
-0.052001953125
-0.066650390625
-0.0750732421875
-0.0963134765625
-0.1043701171875
-0.0933837890625
-0.076904296875
-0.0699462890625
-0.07177734375
-0.0684814453125
-0.06756591796875
-0.07086181640624999
-0.072509765625
-0.07177734375
-0.06738281249999999
-0.06756591796875
-0.06738281249999999
-0.07672119140625
-0.08020019531249999
-0.07159423828125
-0.06317138671875
-0.0692138671875
-0.0823974609375
-0.09045410156249999
-0.09118652343749999
-0.07836914062499999
-0.0692138671875
-0.05731201171874999
-0.05511474609374999
-0.0677490234375
-0.05749511718750001
-0.07470703125
-0.0633544921875
-0.06683349609375
-0.057861328125
-0.05731201171874999
-0.019409179687499997
-0.032958984375
-0.05401611328125
-0.0589599609375
-0.0509033203125
-0.06591796875
-0.080474853515625
-0.07470703125
-0.11041259765625
-0.1336669921875
-0.0897216796875
-0.0498046875
-0.0439453125
-0.040283203125
-0.028747558593750003
-0.030029296874999997
-0.03698730468749999
-0.04742431640624999
-0.05932617187500001
-0.0648193359375
-0.05126953125
-0.05621337890624999
-0.07415771484375
-0.08020019531249999
-0.08038330078124999
-0.0845947265625
-0.0919189453125
-0.09210205078125
-0.0721435546875
-0.07122802734374999
-0.06701660156249999
-0.07470703125
-0.07159423828125
-0.05694580078124999
-0.04797363281249999
-0.0472412109375
-0.047607421875
-0.0545654296875
-0.06500244140625
-0.06353759765625
-0.05731201171874999
-0.052734375
-0.0399169921875
-0.03955078124999999
-0.03533935546875
-0.03186035156249999
-0.035888671875
-0.05987548828124999
-0.08184814453125
-0.0615234375
-0.0457763671875
-0.0498046875
-0.04669189453125
-0.04101562499999999
-0.031494140625
-0.0362548828125
-0.03936767578125
-0.0439453125
-0.04248046875
-0.0494384765625
-0.0450439453125
-0.04138183593749999
-0.04852294921875
-0.0596923828125
-0.06500244140625
-0.06536865234375
-0.04833984374999999
-0.04174804687499999
-0.05712890625
-0.05419921875
-0.04119873046875
-0.04193115234375
-0.05218505859375
-0.04376220703125
-0.01812744140625
0.002197265625
0.002197265625
-0.008056640624999998
-0.05126953125
-0.076904296875
-0.07910156249999999
-0.07672119140625
-0.06445312499999999
-0.04174804687499999
-0.03186035156249999
-0.029663085937500003
-0.04449462890625
-0.03277587890624999
-0.011718749999999998
-0.016113281249999997
-0.029296875
-0.032958984375
-0.026916503906249997
-0.018310546875
0.0087890625
-0.004943847656249999
-0.02197265625
-0.04486083984375
-0.043212890625
-0.03076171875
-0.01373291015625
-0.01318359375
-0.02471923828125
-0.0289306640625
-0.0186767578125
-0.025817871093749997
-0.021240234375
0.00732421875
0.027832031249999997
0.018310546875
-0.030944824218749993
-0.06701660156249999
-0.032958984375
0.01190185546875
0.05401611328125
0.03533935546875
0.0135498046875
0.0029296874999999996
0.0087890625
0.011718749999999998
0.03204345703125
0.008056640624999998
-0.0164794921875
-0.018493652343749997
-0.009887695312499998
0.0146484375
0.020324707031249997
-0.028198242187499997
-0.04614257812499999
-0.06243896484374999
-0.05932617187500001
-0.03057861328125
0.007507324218749999
0.0034790039062499996
-0.008056640624999998
-0.01666259765625
-0.032958984375
-0.03131103515625
-0.0355224609375
-0.02618408203125
0.006958007812499999
0.024353027343749997
0.02545166015625
0.02947998046875
0.0435791015625
0.03222656249999999
0.017028808593749997
0.0157470703125
0.023254394531249997
0.03662109375
0.03424072265625
0.0263671875
0.0186767578125
0.03076171875
0.03076171875
0.03662109375
0.04174804687499999
0.03131103515625
0.00439453125
0.032958984375
0.0347900390625
0.03698730468749999
0.0380859375
0.015380859375
0.022155761718749997
0.05255126953124999
0.0604248046875
0.084228515625
0.14007568359375
0.16387939453125
0.15087890625
0.16571044921875
0.16442871093749997
0.1278076171875
0.0860595703125
0.0604248046875
0.0333251953125
0.01556396484375
-0.0216064453125
-0.05657958984374999
-0.0633544921875
-0.06903076171875
-0.08276367187499999
-0.11059570312499999
-0.11627197265625
-0.11132812499999999
-0.10675048828125
-0.100341796875
-0.0780029296875
-0.028198242187499997
0.02197265625
0.0750732421875
0.14959716796875
0.21917724609374997
0.2896728515625
0.3431396484375
0.40393066406249994
0.47259521484374994
0.539794921875
0.6002197265625
0.6229248046875
0.574951171875
0.40301513671875
0.1981201171875
0.034423828125
-0.0889892578125
-0.14501953125
-0.14978027343749997
-0.148681640625
-0.1527099609375
-0.1376953125
-0.11499023437500001
-0.1116943359375
-0.099609375
-0.0750732421875
-0.05731201171874999
-0.027832031249999997
-0.0501708984375
-0.06134033203124999
-0.0472412109375
-0.0523681640625
-0.04779052734374999
-0.07122802734374999
-0.08660888671874999
-0.10693359374999999
-0.125244140625
-0.10089111328125
-0.05529785156249999
0.00384521484375
0.0732421875
0.29351806640624994
0.403564453125
0.40118408203124994
0.36712646484375
0.30798339843749994
0.24975585937499997
0.18749999999999997
0.140625
0.11279296874999999
0.0845947265625
0.06500244140625
0.03936767578125
0.03607177734375
0.012451171875
-0.01007080078125
-0.0164794921875
-0.03186035156249999
-0.04010009765624999
-0.04870605468749999
-0.03753662109375
-0.029296875
-0.016845703124999997
-0.0087890625
0.0
0.003662109375
0.0260009765625
0.003662109375
-0.0355224609375
-0.0604248046875
-0.066650390625
-0.030944824218749993
-0.03881835937499999
-0.084228515625
-0.11132812499999999
-0.11187744140625
-0.10510253906249999
-0.11132812499999999
-0.0933837890625
-0.10107421875
-0.10107421875
-0.08734130859374999
-0.09594726562499999
-0.1153564453125
-0.10308837890624999
-0.09814453124999999
-0.09063720703125
-0.0882568359375
-0.08862304687499999
-0.0867919921875
-0.07653808593749999
-0.0706787109375
-0.0677490234375
-0.085693359375
-0.09374999999999999
-0.07781982421875
-0.066650390625
-0.06573486328125
-0.07012939453124999
-0.0728759765625
-0.06884765625
-0.06298828125
-0.05804443359375
-0.04431152343749999
-0.03955078124999999
-0.03076171875
-0.017578125
-0.020507812499999997
-0.0146484375
-0.0087890625
0.00274658203125
0.01300048828125
-0.0010986328125
-0.00164794921875
0.005859374999999999
0.00714111328125
-0.00054931640625
-0.00714111328125
-0.003662109375
0.0172119140625
0.0355224609375
0.02288818359375
0.006591796875
-0.0018310546875
0.0032958984375
0.0
-0.010986328125
-0.03790283203124999
-0.04193115234375
-0.03698730468749999
-0.03533935546875
-0.031494140625
-0.04101562499999999
-0.04907226562499999
-0.03936767578125
-0.02178955078125
-0.008056640624999998
-0.012084960937499998
-0.004211425781249999
0.0062255859375
-0.0047607421875
-0.009887695312499998
-0.00787353515625
-0.0012817382812499998
-0.0029296874999999996
-0.0274658203125
-0.04174804687499999
-0.0384521484375
-0.03863525390625
-0.06097412109374999
-0.06738281249999999
-0.057861328125
-0.065185546875
-0.05841064453125001
-0.05859375
-0.07269287109374999
-0.079833984375
-0.069580078125
-0.06884765625
-0.06719970703125
-0.06719970703125
-0.0728759765625
-0.098876953125
-0.11828613281249999
-0.1336669921875
-0.13568115234375
-0.13165283203125
-0.13385009765624997
-0.12744140624999997
-0.12030029296874999
-0.09558105468749999
-0.08770751953124999
-0.10546875
-0.12506103515625
-0.12762451171874997
-0.126708984375
-0.1483154296875
-0.132110595703125
-0.123046875
-0.12652587890625
-0.11553955078124999
-0.0999755859375
-0.09466552734375
-0.07653808593749999
-0.07855224609375
-0.1072998046875
-0.09521484375
-0.07122802734374999
-0.08166503906249999
-0.11553955078124999
-0.120849609375
-0.11132812499999999
-0.09246826171875
-0.06573486328125
-0.04669189453125
-0.0428466796875
-0.06628417968749999
-0.08367919921875
-0.08166503906249999
-0.052734375
-0.03369140624999999
-0.03186035156249999
-0.04705810546874999
-0.04174804687499999
-0.05950927734375
-0.07910156249999999
-0.052734375
-0.017578125
0.004028320312499999
-0.0091552734375
-0.03973388671874999
-0.04687499999999999
-0.054931640625
-0.0677490234375
-0.07598876953125
-0.0714111328125
-0.06445312499999999
-0.0882568359375
-0.104736328125
-0.087890625
-0.07763671874999999
-0.0714111328125
-0.08551025390625
-0.0919189453125
-0.07653808593749999
-0.08258056640625
-0.10107421875
-0.07910156249999999
-0.09118652343749999
-0.119384765625
-0.1153564453125
-0.1083984375
-0.09741210937499999
-0.09228515624999999
-0.08660888671874999
-0.09356689453125
-0.09374999999999999
-0.07818603515625
-0.0677490234375
-0.05859375
-0.05364990234375
-0.054931640625
-0.0626220703125
-0.0732421875
-0.09411621093749999
-0.10162353515625
-0.1083984375
-0.10107421875
-0.09063720703125
-0.08093261718749999
-0.069580078125
-0.05529785156249999
-0.05163574218749999
-0.05731201171874999
-0.06463623046875
-0.0787353515625
-0.08642578125
-0.08038330078124999
-0.08990478515624999
-0.08166503906249999
-0.06628417968749999
-0.05877685546875
-0.05255126953124999
-0.0472412109375
-0.052001953125
-0.06555175781249999
-0.07470703125
-0.0860595703125
-0.08001708984375
-0.0684814453125
-0.075439453125
-0.0919189453125
-0.11059570312499999
-0.084228515625
-0.05566406249999999
-0.04797363281249999
-0.05108642578125
-0.03643798828125
-0.02947998046875
-0.023254394531249997
-0.018310546875
-0.0146484375
-0.009521484375
-0.0047607421875
0.0047607421875
0.00384521484375
0.0
0.010253906249999998
0.009521484375
-0.004028320312499999
-0.00677490234375
-0.0020141601562499996
0.009521484375
0.02197265625
0.03515625
0.03405761718749999
