-0.09667968749999999
-0.09558105468749999
-0.1014404296875
-0.09667968749999999
-0.09466552734375
-0.09741210937499999
-0.10089111328125
-0.11151123046874999
-0.10693359374999999
-0.10400390625
-0.1116943359375
-0.10455322265624999
-0.0970458984375
-0.10986328125
-0.11499023437500001
-0.10089111328125
-0.090087890625
-0.08514404296875
-0.09942626953124999
-0.11132812499999999
-0.10400390625
-0.08843994140624999
-0.0860595703125
-0.09484863281249999
-0.10693359374999999
-0.09759521484375
-0.08312988281249999
-0.08038330078124999
-0.090087890625
-0.09228515624999999
-0.09118652343749999
-0.087158203125
-0.084228515625
-0.079833984375
-0.07946777343749999
-0.076171875
-0.0867919921875
-0.08807373046875
-0.08038330078124999
-0.06573486328125
-0.05841064453125001
-0.07653808593749999
-0.0919189453125
-0.08642578125
-0.0845947265625
-0.07305908203124999
-0.05767822265625
-0.06719970703125
-0.08020019531249999
-0.07653808593749999
-0.05859375
-0.057861328125
-0.06811523437499999
-0.0640869140625
-0.04705810546874999
-0.04541015625
-0.04870605468749999
-0.04522705078124999
-0.06005859374999999
-0.05529785156249999
-0.06390380859375
-0.05932617187500001
-0.05163574218749999
-0.05474853515624999
-0.0611572265625
-0.06134033203124999
-0.06134033203124999
-0.05383300781249999
-0.0472412109375
-0.05364990234375
-0.06170654296874999
-0.0596923828125
-0.05145263671875
-0.0472412109375
-0.052734375
-0.05126953125
-0.04174804687499999
-0.02288818359375
-0.019409179687499997
-0.01904296875
-0.0325927734375
-0.05035400390625
-0.0421142578125
-0.034423828125
-0.0263671875
-0.01995849609375
-0.02252197265625
-0.029113769531249997
-0.009521484375
-0.0091552734375
-0.02288818359375
-0.02984619140625
-0.020874023437499997
-0.013366699218749998
-0.0164794921875
-0.03405761718749999
-0.03790283203124999
-0.011718749999999998
-0.015930175781249997
-0.030029296874999997
-0.022155761718749997
-0.0087890625
-0.02197265625
-0.04449462890625
-0.05401611328125
-0.04614257812499999
-0.04833984374999999
-0.04614257812499999
-0.026733398437499997
-0.028747558593750003
-0.0472412109375
-0.03863525390625
-0.0142822265625
-0.023437499999999997
-0.04925537109374999
-0.0589599609375
-0.0494384765625
-0.04632568359375
-0.04797363281249999
-0.04449462890625
-0.03405761718749999
-0.0087890625
0.020874023437499997
0.0216064453125
0.020324707031249997
0.02362060546875
0.040283203125
0.04431152343749999
0.012084960937499998
-0.0029296874999999996
-0.0029296874999999996
-0.020507812499999997
-0.0384521484375
-0.04083251953124999
-0.030944824218749993
-0.026916503906249997
-0.0201416015625
-0.0146484375
-0.0029296874999999996
-0.00164794921875
-0.00732421875
-0.005859374999999999
0.00036621093749999995
0.006591796875
0.0106201171875
0.005859374999999999
-0.00732421875
-0.01080322265625
-0.006042480468749999
-0.00787353515625
-0.014831542968750002
-0.03607177734375
-0.04632568359375
-0.0333251953125
-0.02142333984375
-0.019409179687499997
-0.0076904296875
0.0076904296875
0.01373291015625
0.029296875
0.03369140624999999
0.01776123046875
0.009521484375
0.01116943359375
0.01300048828125
0.024536132812499997
0.017578125
-0.008056640624999998
-0.029663085937500003
-0.054931640625
-0.0615234375
-0.05126953125
-0.0157470703125
0.025634765625
0.06701660156249999
0.11206054687499999
0.1585693359375
0.23107910156249997
0.305419921875
0.37207031249999994
0.443115234375
0.509033203125
0.56817626953125
0.61395263671875
0.63134765625
0.62255859375
0.5412597656249999
0.378662109375
0.16040039062499997
-0.010986328125
-0.12396240234375001
-0.1827392578125
-0.19482421874999997
-0.19354248046875
-0.19628906249999997
-0.1856689453125
-0.16058349609375
-0.14337158203124997
-0.1307373046875
-0.10748291015625
-0.08056640625
-0.066650390625
-0.06372070312499999
-0.071044921875
-0.069580078125
-0.06646728515625
-0.06005859374999999
-0.06079101562499999
-0.072509765625
-0.075439453125
-0.08312988281249999
-0.08312988281249999
-0.0750732421875
-0.061889648437499986
-0.03863525390625
-0.029113769531249997
-0.0252685546875
-0.030944824218749993
-0.02490234375
-0.03222656249999999
-0.03570556640625
-0.027832031249999997
-0.03533935546875
-0.0439453125
-0.04248046875
-0.04687499999999999
-0.06097412109374999
-0.06610107421875
-0.06372070312499999
-0.0428466796875
-0.00732421875
0.016845703124999997
0.0384521484375
0.044677734375
0.03186035156249999
0.008422851562499998
-0.00238037109375
-0.0062255859375
0.003662109375
0.0014648437499999998
-0.011535644531249998
-0.012268066406249998
-0.029296875
-0.02984619140625
-0.03186035156249999
-0.026916503906249997
0.00897216796875
0.02105712890625
0.02618408203125
0.023986816406249997
0.01446533203125
0.01739501953125
0.02197265625
0.015014648437499998
0.0311279296875
0.04632568359375
0.06298828125
0.08056640625
0.057861328125
0.044677734375
0.04156494140624999
0.04156494140624999
0.03167724609375
0.03387451171875
0.06280517578125
0.0611572265625
0.0545654296875
0.05163574218749999
0.05749511718750001
0.04797363281249999
0.03204345703125
0.024169921874999997
0.025634765625
0.0399169921875
0.05932617187500001
0.0633544921875
0.06005859374999999
0.0721435546875
0.08093261718749999
0.08184814453125
0.0849609375
0.08129882812499999
0.084228515625
0.08624267578125
0.10107421875
0.11572265625
0.13348388671875
0.141357421875
0.14630126953125
0.15106201171875
0.147216796875
0.14978027343749997
0.146484375
0.14190673828125
0.1446533203125
0.13916015625
0.13330078125
0.139892578125
0.14904785156249997
0.15655517578125
0.15765380859374997
0.16406249999999997
0.18365478515624997
0.16552734374999997
0.12982177734375
0.12011718749999999
0.123046875
0.1336669921875
0.136962890625
0.12799072265625
0.11737060546874999
0.11132812499999999
0.11077880859375
0.117919921875
0.11480712890625
0.09851074218749999
0.07580566406249999
0.076904296875
0.076171875
0.07196044921874999
0.07580566406249999
0.05712890625
0.032958984375
0.0113525390625
0.00439453125
0.00274658203125
-0.01300048828125
-0.02490234375
-0.0260009765625
-0.03314208984374999
-0.0604248046875
-0.07470703125
-0.06976318359375
-0.0498046875
-0.04266357421875
-0.052734375
-0.07653808593749999
-0.0838623046875
-0.08166503906249999
-0.07580566406249999
-0.09173583984375
-0.0963134765625
-0.0889892578125
-0.08642578125
-0.090087890625
-0.09210205078125
-0.09393310546875
-0.0889892578125
-0.085693359375
-0.079833984375
-0.08056640625
-0.0889892578125
-0.0908203125
-0.08074951171875
-0.07012939453124999
-0.06628417968749999
-0.05419921875
-0.03955078124999999
-0.03680419921875
-0.0501708984375
-0.05364990234375
-0.054931640625
-0.06573486328125
-0.07305908203124999
-0.07397460937499999
-0.07049560546875
-0.06500244140625
-0.05932617187500001
-0.05987548828124999
-0.06298828125
-0.05694580078124999
-0.05364990234375
-0.0703125
-0.08349609374999999
-0.06372070312499999
-0.05346679687499999
-0.0450439453125
-0.04449462890625
-0.04962158203125
-0.0399169921875
-0.023437499999999997
-0.006042480468749999
0.0113525390625
0.025634765625
0.026916503906249997
-0.02197265625
-0.04650878906249999
-0.03570556640625
-0.03918457031249999
-0.0333251953125
-0.025634765625
-0.020507812499999997
-0.029113769531249997
-0.04101562499999999
-0.05566406249999999
-0.05950927734375
-0.03643798828125
-0.05712890625
-0.084228515625
-0.08074951171875
-0.06701660156249999
-0.04833984374999999
-0.04907226562499999
-0.04742431640624999
-0.0611572265625
-0.05401611328125
-0.054931640625
-0.03955078124999999
-0.030029296874999997
-0.03405761718749999
-0.03222656249999999
-0.024536132812499997
-0.03021240234375
-0.03936767578125
-0.04119873046875
-0.04248046875
-0.0498046875
-0.05804443359375
-0.04632568359375
-0.03405761718749999
-0.032958984375
-0.027832031249999997
-0.029663085937500003
-0.025634765625
-0.024169921874999997
-0.03570556640625
-0.029113769531249997
-0.027648925781249997
-0.0333251953125
-0.044677734375
-0.029296875
-0.00439453125
-0.030395507812499997
-0.0523681640625
-0.0421142578125
-0.0472412109375
-0.047607421875
-0.0428466796875
-0.030395507812499997
-0.03424072265625
-0.03698730468749999
-0.03314208984374999
-0.023437499999999997
-0.03369140624999999
-0.03222656249999999
-0.025817871093749997
-0.018310546875
-0.0054931640625
0.0025634765624999996
0.00823974609375
0.0010986328125
-0.01190185546875
-0.01300048828125
-0.018310546875
-0.01080322265625
-0.01373291015625
-0.012451171875
-0.0157470703125
-0.016845703124999997
-0.015197753906249998
-0.024536132812499997
-0.0311279296875
-0.0252685546875
-0.013916015624999998
0.00018310546874999997
0.0007324218749999999
-0.00036621093749999995
-0.00531005859375
-0.01318359375
-0.010253906249999998
-0.016113281249999997
-0.008422851562499998
0.0007324218749999999
0.006958007812499999
0.005859374999999999
0.0018310546875
-0.00732421875
-0.010986328125
-0.00640869140625
-0.00640869140625
-0.0062255859375
-0.0076904296875
-0.00036621093749999995
-0.0034790039062499996
0.0
0.00036621093749999995
0.0179443359375
0.022155761718749997
0.0186767578125
0.02197265625
0.008056640624999998
-0.0010986328125
0.0146484375
0.03424072265625
0.023437499999999997
0.030944824218749993
0.028747558593750003
0.0091552734375
-0.011718749999999998
-0.020324707031249997
-0.01739501953125
-0.028747558593750003
-0.03973388671874999
-0.01629638671875
0.0054931640625
-0.01007080078125
-0.01904296875
-0.0034790039062499996
-0.0128173828125
-0.014099121093749998
-0.01318359375
-0.028015136718749997
-0.02728271484375
-0.030944824218749993
-0.0362548828125
-0.0311279296875
-0.01739501953125
-0.00274658203125
0.00439453125
0.008422851562499998
0.00897216796875
0.01666259765625
0.01739501953125
0.0091552734375
-0.011535644531249998
-0.01904296875
-0.0146484375
-0.0029296874999999996
0.021240234375
0.024353027343749997
0.006042480468749999
0.006042480468749999
0.028198242187499997
0.04248046875
0.03405761718749999
0.0223388671875
0.0146484375
0.006958007812499999
0.016113281249999997
0.020507812499999997
0.037353515625
0.04779052734374999
0.0531005859375
0.0567626953125
0.07049560546875
0.07653808593749999
0.07781982421875
0.072509765625
0.0633544921875
0.052734375
0.0472412109375
0.03204345703125
0.014831542968750002
0.006042480468749999
0.00439453125
0.00274658203125
0.0106201171875
0.0186767578125
0.0142822265625
0.012268066406249998
0.0087890625
0.012268066406249998
0.04266357421875
0.0362548828125
0.027832031249999997
0.03424072265625
0.0501708984375
0.05291748046875
0.04229736328125
0.03717041015625
0.029113769531249997
0.0311279296875
0.03424072265625
0.04559326171874999
0.05401611328125
0.04852294921875
0.03222656249999999
0.018493652343749997
0.012084960937499998
0.004028320312499999
0.0029296874999999996
0.00714111328125
0.006958007812499999
0.010986328125
0.01995849609375
0.011718749999999998
-0.008056640624999998
-0.0135498046875
-0.0054931640625
0.00457763671875
0.0223388671875
0.06079101562499999
0.11206054687499999
0.1585693359375
0.213134765625
0.28582763671874994
0.3651123046875
0.43524169921874994
0.5064697265625
0.5617675781249999
0.61669921875
0.64910888671875
0.64453125
0.60589599609375
0.49017333984375006
0.309814453125
0.12158203124999999
-0.0020141601562499996
-0.08349609374999999
-0.1307373046875
-0.15435791015624997
-0.15087890625
-0.147216796875
-0.123046875
-0.0908203125
-0.0728759765625
-0.04797363281249999
-0.024169921874999997
-0.01007080078125
0.0054931640625
0.01776123046875
0.008056640624999998
-0.007507324218749999
-0.0164794921875
-0.02288818359375
-0.023437499999999997
-0.015014648437499998
-0.01190185546875
-0.01190185546875
-0.022705078125
-0.03955078124999999
-0.0457763671875
-0.03936767578125
-0.03222656249999999
-0.030395507812499997
-0.023254394531249997
-0.02178955078125
-0.030029296874999997
-0.0439453125
-0.04174804687499999
-0.025634765625
-0.01995849609375
-0.019775390624999997
-0.0274658203125
-0.0355224609375
-0.04266357421875
-0.04046630859374999
-0.03918457031249999
-0.03387451171875
-0.023071289062499997
-0.01666259765625
-0.00677490234375
0.0029296874999999996
0.003662109375
-0.0014648437499999998
-0.00640869140625
-0.0106201171875
-0.00457763671875
0.00164794921875
0.00311279296875
0.0062255859375
0.0216064453125
0.03662109375
0.0380859375
0.023254394531249997
0.020690917968749997
0.04449462890625
0.06536865234375
0.0545654296875
0.0435791015625
0.04431152343749999
0.04595947265625
0.04138183593749999
0.040283203125
0.05346679687499999
0.06298828125
0.04138183593749999
0.03497314453125
0.04797363281249999
0.06134033203124999
0.06317138671875
0.04522705078124999
0.0289306640625
0.05822753906249999
0.090087890625
0.10235595703124999
0.09777832031249999
0.094482421875
0.09906005859375
0.09741210937499999
0.08129882812499999
0.06738281249999999
0.06701660156249999
0.09136962890625
0.10748291015625
0.1083984375
0.11572265625
0.12377929687499997
0.11993408203125
0.12103271484374997
0.12268066406249999
0.13421630859375003
0.13165283203125
0.13677978515625
0.1527099609375
0.15911865234374997
0.14666748046874997
0.14739990234375
0.15325927734375
0.1578369140625
0.15289306640625
0.14337158203124997
0.14007568359375
0.139892578125
0.13677978515625
0.1358642578125
0.1468505859375
0.15509033203125
0.1585693359375
0.1578369140625
0.14208984375
0.1351318359375
0.1435546875
0.14227294921875
0.15216064453125
0.1571044921875
0.15673828124999997
0.14208984375
0.1204833984375
0.12322998046875001
0.11572265625
0.11389160156249999
0.1043701171875
0.09851074218749999
0.10491943359374999
0.11389160156249999
0.12268066406249999
0.126708984375
0.11022949218749999
0.09521484375
0.08660888671874999
0.08184814453125
0.07928466796875
0.07635498046875
0.0523681640625
0.0355224609375
0.04650878906249999
0.04339599609375
0.028015136718749997
0.0034790039062499996
-0.020507812499999997
-0.031494140625
-0.035888671875
-0.05364990234375
-0.06719970703125
-0.076171875
-0.08312988281249999
-0.08221435546874999
-0.08514404296875
-0.09558105468749999
-0.09374999999999999
-0.08697509765625
-0.074981689453125
-0.06536865234375
-0.06591796875
-0.0615234375
-0.05511474609374999
-0.05960083007812499
-0.066650390625
-0.07305908203124999
-0.07653808593749999
-0.0736083984375
-0.06591796875
-0.06317138671875
-0.06573486328125
-0.057861328125
-0.03570556640625
-0.03057861328125
-0.03881835937499999
-0.04815673828125
-0.04595947265625
-0.04229736328125
-0.0450439453125
-0.05639648437499999
-0.05877685546875
-0.04815673828125
-0.04046630859374999
-0.040283203125
-0.03131103515625
-0.02618408203125
-0.04376220703125
-0.03076171875
-0.0333251953125
-0.0347900390625
-0.022705078125
-0.022705078125
-0.04101562499999999
-0.03405761718749999
-0.02471923828125
-0.044677734375
-0.05383300781249999
-0.05419921875
-0.03936767578125
-0.026916503906249997
-0.02838134765625
-0.03515625
-0.05035400390625
-0.052001953125
-0.0501708984375
-0.04119873046875
-0.03826904296874999
-0.030029296874999997
-0.021240234375
-0.0135498046875
-0.03405761718749999
-0.0567626953125
-0.05218505859375
-0.02838134765625
-0.03131103515625
-0.0325927734375
-0.02490234375
-0.0252685546875
-0.024169921874999997
-0.020507812499999997
-0.013916015624999998
-0.0106201171875
-0.010253906249999998
-0.030395507812499997
-0.0457763671875
-0.04083251953124999
-0.04687499999999999
-0.04797363281249999
-0.04156494140624999
-0.05035400390625
-0.0428466796875
-0.03387451171875
-0.01300048828125
-0.011718749999999998
-0.017028808593749997
-0.01666259765625
-0.017028808593749997
-0.0146484375
-0.012268066406249998
-0.0142822265625
-0.009887695312499998
-0.017578125
-0.023071289062499997
-0.030395507812499997
-0.03076171875
-0.03533935546875
-0.03918457031249999
-0.03662109375
-0.03369140624999999
-0.03369140624999999
-0.021240234375
-0.03186035156249999
-0.0421142578125
-0.0450439453125
-0.03021240234375
-0.0146484375
-0.01080322265625
-0.016113281249999997
-0.0252685546875
-0.0380859375
-0.047607421875
-0.04559326171874999
-0.02728271484375
-0.0252685546875
-0.02197265625
-0.009704589843749998
-0.00640869140625
-0.026916503906249997
-0.04687499999999999
-0.06005859374999999
-0.05529785156249999
-0.03314208984374999
-0.027832031249999997
-0.015197753906249998
-0.02197265625
-0.050537109375
-0.04907226562499999
-0.04138183593749999
-0.0457763671875
-0.06372070312499999
-0.057861328125
-0.04248046875
-0.034423828125
-0.03405761718749999
-0.025817871093749997
-0.01739501953125
-0.007507324218749999
-0.007507324218749999
-0.008056640624999998
-0.00933837890625
-0.0018310546875
-0.0025634765624999996
-0.00640869140625
-0.009521484375
-0.00823974609375
-0.005126953124999999
-0.0029296874999999996
-0.005126953124999999
-0.01007080078125
-0.00933837890625
-0.016113281249999997
-0.0179443359375
-0.014831542968750002
-0.017028808593749997
-0.0289306640625
-0.0252685546875
-0.0179443359375
-0.024169921874999997
-0.0289306640625
-0.043487548828125
-0.040283203125
-0.035888671875
-0.029113769531249997
-0.02252197265625
-0.0179443359375
-0.02252197265625
-0.03460693359375
-0.035888671875
-0.03662109375
-0.0384521484375
-0.029296875
-0.01922607421875
-0.020507812499999997
-0.0435791015625
-0.02838134765625
0.01300048828125
0.03918457031249999
0.05163574218749999
0.03277587890624999
0.01885986328125
0.0157470703125
0.027832031249999997
0.034423828125
0.020690917968749997
0.008056640624999998
0.01904296875
0.023437499999999997
0.01995849609375
0.015930175781249997
0.0106201171875
0.00860595703125
0.00714111328125
-0.00311279296875
-0.0186767578125
-0.01995849609375
-0.0201416015625
-0.02490234375
-0.03186035156249999
-0.03955078124999999
-0.04486083984375
-0.04229736328125
-0.03167724609375
-0.01318359375
0.0029296874999999996
0.00787353515625
0.0020141601562499996
0.004028320312499999
0.00036621093749999995
-0.016113281249999997
-0.03515625
-0.04083251953124999
-0.031494140625
0.00714111328125
0.0421142578125
0.04083251953124999
0.015014648437499998
0.012451171875
0.028564453125
0.02288818359375
0.006958007812499999
-0.0172119140625
-0.015014648437499998
-0.0128173828125
-0.03277587890624999
-0.07470703125
-0.07965087890625
-0.050537109375
-0.015197753906249998
0.027832031249999997
0.0849609375
0.145751953125
0.20910644531249997
0.28912353515625
0.36401367187499994
0.44677734375
0.52789306640625
0.577880859375
0.60882568359375
0.6317138671875
0.63153076171875
0.6132202148437499
0.4976806640625
0.2757568359375
0.01995849609375
-0.1776123046875
-0.26641845703125
-0.23602294921875
-0.19628906249999997
-0.1651611328125
-0.15765380859374997
-0.14556884765625
-0.126708984375
-0.09411621093749999
-0.0633544921875
-0.0421142578125
-0.03662109375
-0.03186035156249999
-0.0333251953125
-0.03497314453125
-0.04064941406249999
-0.0384521484375
-0.029296875
-0.03131103515625
-0.0439453125
-0.0545654296875
-0.04797363281249999
-0.04046630859374999
-0.04541015625
-0.05364990234375
-0.08312988281249999
-0.09906005859375
-0.09594726562499999
-0.08001708984375
-0.07672119140625
-0.0699462890625
-0.0523681640625
-0.04815673828125
-0.03900146484375
-0.03021240234375
-0.03131103515625
-0.02728271484375
-0.026916503906249997
-0.0384521484375
-0.05749511718750001
-0.05712890625
-0.05621337890624999
-0.04907226562499999
-0.02984619140625
-0.0179443359375
-0.0054931640625
0.00384521484375
0.0014648437499999998
-0.004028320312499999
0.0
-0.002197265625
-0.0054931640625
-0.0054931640625
-0.0216064453125
-0.0347900390625
-0.034423828125
-0.0333251953125
-0.0260009765625
-0.02197265625
-0.01995849609375
-0.004211425781249999
0.01904296875
0.040283203125
0.031494140625
0.02197265625
0.023254394531249997
0.03643798828125
0.03240966796875
0.021240234375
0.02471923828125
0.01904296875
0.015380859375
0.01812744140625
0.024536132812499997
0.023986816406249997
0.03057861328125
0.0362548828125
0.04156494140624999
0.0472412109375
0.05877685546875
0.06298828125
0.0472412109375
0.0274658203125
0.021240234375
0.0142822265625
0.005859374999999999
-0.0020141601562499996
-0.0106201171875
-0.005859374999999999
0.029296875
0.05566406249999999
0.05529785156249999
0.08056640625
0.1021728515625
0.1160888671875
0.1343994140625
0.12487792968749999
0.11846923828124999
0.10382080078124999
0.08166503906249999
0.06445312499999999
0.06701660156249999
0.0677490234375
0.05822753906249999
0.0509033203125
0.03717041015625
0.03424072265625
0.054931640625
0.09411621093749999
0.11022949218749999
0.11846923828124999
0.13677978515625
0.1278076171875
0.11041259765625
0.09979248046875
0.09594726562499999
0.0970458984375
0.0772705078125
0.05145263671875
0.04559326171874999
0.05804443359375
0.07910156249999999
0.0787353515625
0.076171875
0.06243896484374999
0.05072021484375
0.03607177734375
0.02618408203125
0.015380859375
-0.00054931640625
-0.012084960937499998
-0.020690917968749997
-0.0311279296875
-0.04486083984375
-0.0450439453125
-0.044677734375
-0.06060791015625
-0.08056640625
-0.1153564453125
-0.14666748046874997
-0.15545654296874997
-0.13970947265625
-0.15875244140625
-0.1600341796875
-0.1435546875
-0.14501953125
-0.14337158203124997
-0.1270751953125
-0.1322021484375
-0.12268066406249999
-0.09832763671875
-0.09173583984375
-0.09356689453125
-0.09246826171875
-0.098876953125
-0.1171875
-0.14025878906249997
-0.14154052734374997
-0.13623046874999997
-0.13275146484375
-0.1380615234375
-0.14447021484375
-0.1373291015625
-0.13385009765624997
-0.1329345703125
-0.1307373046875
-0.117919921875
-0.11645507812499999
-0.16333007812499997
-0.213134765625
-0.21258544921874997
-0.18969726562499997
-0.1724853515625
-0.15692138671874997
-0.12872314453125
-0.1175537109375
-0.10638427734374999
-0.09741210937499999
-0.09045410156249999
-0.08843994140624999
-0.09484863281249999
-0.09814453124999999
-0.09667968749999999
-0.08660888671874999
-0.079833984375
-0.0787353515625
-0.0677490234375
-0.08020019531249999
-0.08642578125
-0.08862304687499999
-0.09210205078125
-0.08312988281249999
-0.07489013671874999
-0.06445312499999999
-0.052734375
-0.04614257812499999
-0.06353759765625
-0.0882568359375
-0.09484863281249999
-0.08624267578125
-0.09210205078125
-0.10382080078124999
-0.10949707031249999
-0.10693359374999999
-0.10125732421874999
-0.08020019531249999
-0.05181884765625
-0.0384521484375
-0.04815673828125
-0.04650878906249999
-0.04614257812499999
-0.04595947265625
-0.05932617187500001
-0.0615234375
-0.0596923828125
-0.05731201171874999
-0.062255859375
-0.075439453125
-0.08349609374999999
-0.08056640625
-0.0736083984375
-0.05987548828124999
-0.0615234375
-0.0604248046875
-0.054931640625
-0.04870605468749999
-0.04083251953124999
-0.04248046875
-0.02728271484375
-0.02838134765625
-0.05749511718750001
-0.07415771484375
-0.06701660156249999
-0.05401611328125
-0.05749511718750001
-0.05566406249999999
-0.05364990234375
-0.04870605468749999
-0.03936767578125
-0.03680419921875
-0.024536132812499997
-0.020507812499999997
-0.0325927734375
-0.04632568359375
-0.05145263671875
-0.047607421875
-0.04193115234375
-0.03955078124999999
-0.03643798828125
-0.04559326171874999
-0.06610107421875
-0.08935546875
-0.08441162109375
-0.0750732421875
-0.0615234375
-0.04595947265625
-0.05548095703125
-0.06500244140625
-0.03863525390625
-0.0238037109375
-0.0428466796875
-0.043212890625
-0.0146484375
0.023986816406249997
0.0457763671875
0.0355224609375
0.015014648437499998
-0.0128173828125
-0.027832031249999997
-0.0399169921875
-0.0498046875
-0.03918457031249999
-0.0157470703125
-0.0029296874999999996
-0.0076904296875
0.004028320312499999
0.0164794921875
0.016845703124999997
0.022705078125
0.03222656249999999
0.029296875
0.03350830078124999
0.04193115234375
0.024169921874999997
0.009887695312499998
0.01318359375
0.017578125
0.013366699218749998
0.0012817382812499998
-0.0032958984375
0.00787353515625
0.009521484375
-0.005126953124999999
-0.0025634765624999996
0.004943847656249999
0.01885986328125
0.04064941406249999
0.05657958984374999
0.0611572265625
0.05694580078124999
0.03881835937499999
0.028564453125
0.023071289062499997
0.020507812499999997
0.001922607421875
-0.022705078125
-0.0384521484375
-0.031494140625
-0.015014648437499998
0.0087890625
0.0439453125
0.08312988281249999
0.091552734375
0.09210205078125
0.0889892578125
0.08734130859374999
0.09539794921875
0.08221435546874999
0.0615234375
0.043212890625
0.03369140624999999
0.03167724609375
0.028564453125
0.022705078125
0.00640869140625
0.00054931640625
0.0034790039062499996
0.008056640624999998
0.015197753906249998
0.04669189453125
0.05859375
0.04705810546874999
0.04010009765624999
0.02728271484375
0.015014648437499998
0.0062255859375
-0.004028320312499999
-0.016113281249999997
-0.0087890625
0.00238037109375
0.01080322265625
0.023437499999999997
0.0421142578125
0.05914306640624999
0.044677734375
0.029296875
0.0362548828125
0.0428466796875
0.044677734375
0.0428466796875
0.017028808593749997
-0.0018310546875
-0.02197265625
-0.0421142578125
-0.05145263671875
-0.06628417968749999
-0.05712890625
-0.03955078124999999
-0.03204345703125
-0.029113769531249997
-0.01904296875
0.010986328125
0.04156494140624999
0.08093261718749999
0.123046875
0.19207763671875
0.29132080078125
0.38964843749999994
0.47442626953125
0.53778076171875
0.5875854492187499
0.6533203124999999
0.7098999023437499
0.7221679687499999
0.6763916015624999
0.5240478515625
0.30065917968749994
0.08953857421874999
-0.06701660156249999
-0.18109130859374997
-0.21807861328125
-0.19628906249999997
-0.15124511718749997
-0.14978027343749997
-0.14978027343749997
-0.15765380859374997
-0.16278076171875
-0.15106201171875
-0.1494140625
-0.14190673828125
-0.1109619140625
-0.075439453125
-0.0509033203125
-0.027648925781249997
-0.01300048828125
-0.016113281249999997
-0.022705078125
-0.0311279296875
-0.029296875
-0.028015136718749997
-0.05383300781249999
-0.07232666015625
-0.07452392578124999
-0.07598876953125
-0.08551025390625
-0.0908203125
-0.06591796875
-0.04962158203125
-0.04156494140624999
-0.01116943359375
-0.0062255859375
-0.0289306640625
-0.04376220703125
-0.03515625
-0.03955078124999999
-0.0509033203125
-0.0509033203125
-0.04302978515625
-0.04614257812499999
-0.0604248046875
-0.0684814453125
-0.0640869140625
-0.05584716796875
-0.05126953125
-0.05566406249999999
-0.069580078125
-0.04833984374999999
-0.018493652343749997
0.00311279296875
0.012451171875
0.010437011718749998
-0.004028320312499999
-0.00439453125
-0.0018310546875
0.0128173828125
-0.0018310546875
-0.012451171875
-0.0135498046875
-0.0128173828125
0.00311279296875
0.010986328125
0.0091552734375
0.010253906249999998
0.006958007812499999
0.00384521484375
0.0034790039062499996
0.003662109375
-0.0025634765624999996
-0.0146484375
-0.0128173828125
0.012451171875
0.03186035156249999
0.03607177734375
0.05731201171874999
0.04852294921875
0.04925537109374999
0.04779052734374999
0.04339599609375
0.04742431640624999
0.05621337890624999
0.06298828125
0.06390380859375
0.06060791015625
0.052734375
0.05859375
0.0692138671875
0.0732421875
0.07708740234375
0.0640869140625
0.06628417968749999
0.07562255859374999
0.08477783203124999
0.09851074218749999
0.0743408203125
0.06738281249999999
0.08367919921875
0.09851074218749999
0.10345458984375
0.11059570312499999
0.11132812499999999
0.1153564453125
0.11224365234375
0.11645507812499999
0.11737060546874999
0.11810302734375
0.11462402343749999
0.10986328125
0.10510253906249999
0.10601806640624999
0.1007080078125
0.08642578125
0.076904296875
0.06738281249999999
0.072509765625
0.09173583984375
0.09484863281249999
0.098876953125
0.10327148437499999
0.09228515624999999
0.10107421875
0.11297607421875
0.0772705078125
0.06628417968749999
0.05822753906249999
0.04779052734374999
0.03955078124999999
0.04046630859374999
0.03131103515625
0.009521484375
-0.010253906249999998
-0.01812744140625
-0.023437499999999997
-0.03515625
-0.062255859375
-0.05639648437499999
-0.03662109375
-0.04101562499999999
-0.050537109375
-0.05987548828124999
-0.0677490234375
-0.0703125
-0.06628417968749999
-0.06427001953125
-0.0648193359375
-0.08642578125
-0.104736328125
-0.1058349609375
-0.1083984375
-0.10986328125
-0.10272216796875
-0.10327148437499999
-0.1036376953125
-0.09539794921875
-0.07910156249999999
-0.0823974609375
-0.11059570312499999
-0.1318359375
-0.1336669921875
-0.1171875
-0.09558105468749999
-0.07946777343749999
-0.1083984375
-0.14337158203124997
-0.140625
-0.1336669921875
-0.1314697265625
-0.12249755859374999
-0.1072998046875
-0.10949707031249999
-0.1036376953125
-0.10107421875
-0.10162353515625
-0.10876464843749999
-0.10565185546874999
-0.10015869140625
-0.11242675781249999
-0.12487792968749999
-0.13092041015625
-0.12451171875
-0.11883544921874999
-0.12414550781250001
-0.1314697265625
-0.1351318359375
-0.126708984375
-0.12799072265625
-0.12579345703125
-0.12359619140625
-0.104736328125
-0.0838623046875
-0.07012939453124999
-0.0743408203125
-0.079833984375
-0.07928466796875
-0.08477783203124999
-0.0897216796875
-0.0970458984375
-0.09832763671875
-0.0867919921875
-0.0640869140625
-0.07397460937499999
-0.0787353515625
-0.04833984374999999
-0.04083251953124999
-0.08770751953124999
-0.1153564453125
-0.10400390625
-0.08148193359375
-0.0721435546875
-0.08111572265625
-0.09136962890625
-0.09942626953124999
-0.100341796875
-0.10693359374999999
-0.1029052734375
-0.09283447265625
-0.08038330078124999
-0.08276367187499999
-0.08990478515624999
-0.08917236328124999
-0.07910156249999999
-0.07836914062499999
-0.08843994140624999
-0.09429931640625
-0.0838623046875
-0.07946777343749999
-0.0743408203125
-0.076171875
-0.07910156249999999
-0.06756591796875
-0.0611572265625
-0.05181884765625
-0.044677734375
-0.04632568359375
-0.04907226562499999
-0.04797363281249999
-0.04412841796875
-0.04193115234375
-0.04614257812499999
-0.04797363281249999
-0.04376220703125
-0.030395507812499997
-0.01666259765625
-0.0201416015625
-0.0380859375
-0.04650878906249999
-0.03076171875
-0.016845703124999997
-0.0164794921875
-0.023071289062499997
-0.030395507812499997
-0.03405761718749999
-0.0384521484375
-0.02490234375
0.002197265625
0.00787353515625
-0.00018310546874999997
-0.010986328125
-0.023986816406249997
-0.01904296875
-0.008422851562499998
-0.00714111328125
-0.023254394531249997
-0.04522705078124999
-0.04449462890625
-0.03753662109375
-0.02655029296875
-0.0310821533203125
-0.03881835937499999
-0.0362548828125
-0.031494140625
-0.025817871093749997
-0.012268066406249998
0.00531005859375
0.0142822265625
0.01666259765625
0.02197265625
0.0186767578125
0.00860595703125
0.0034790039062499996
-0.00054931640625
-0.006042480468749999
-0.010986328125
-0.0113525390625
-0.016113281249999997
-0.012084960937499998
-0.0032958984375
-0.00640869140625
-0.01318359375
-0.006958007812499999
0.0007324218749999999
-0.00274658203125
-0.009704589843749998
-0.011535644531249998
-0.013366699218749998
-0.01446533203125
-0.0157470703125
-0.0216064453125
-0.011718749999999998
-0.0010986328125
-0.004211425781249999
-0.0054931640625
-0.004943847656249999
0.00036621093749999995
-0.00054931640625
-0.0032958984375
-0.0018310546875
-0.0020141601562499996
0.03369140624999999
0.0567626953125
0.04650878906249999
0.03881835937499999
0.04742431640624999
0.0677490234375
0.072509765625
0.07708740234375
0.07232666015625
0.0380859375
0.0146484375
0.00439453125
0.006042480468749999
0.0032958984375
-0.0014648437499999998
0.0
0.00860595703125
-0.0029296874999999996
-0.003662109375
-0.0018310546875
0.0007324218749999999
-0.00640869140625
-0.0032958984375
-0.00732421875
-0.006042480468749999
-0.0047607421875
-0.003662109375
-0.00567626953125
0.00164794921875
0.0007324218749999999
-0.00384521484375
-0.00567626953125
-0.00897216796875
-0.0087890625
-0.007507324218749999
-0.009704589843749998
-0.01080322265625
0.00860595703125
0.01812744140625
-0.006042480468749999
-0.010253906249999998
-0.0062255859375
-0.0106201171875
-0.011535644531249998
-0.0062255859375
-0.00531005859375
-0.0179443359375
-0.03204345703125
-0.04486083984375
-0.047607421875
-0.03369140624999999
-0.009521484375
0.022705078125
0.0692138671875
0.12579345703125
0.15161132812499997
0.19189453124999997
0.29425048828125
0.4013671875
0.4978637695312499
0.56231689453125
0.6090087890625
0.63739013671875
0.63446044921875
0.60333251953125
0.5068359375
0.31878662109374994
0.09118652343749999
-0.07635498046875
-0.18090820312499997
-0.22045898437499997
-0.21185302734375
-0.198486328125
-0.1951904296875
-0.17779541015625
-0.144287109375
-0.13055419921875003
-0.10491943359374999
-0.07562255859374999
-0.0567626953125
-0.04870605468749999
-0.0472412109375
-0.04779052734374999
-0.047607421875
-0.05712890625
-0.06976318359375
-0.0732421875
-0.066650390625
-0.06060791015625
-0.0615234375
-0.0545654296875
-0.0604248046875
-0.05859375
-0.05584716796875
-0.0615234375
-0.05291748046875
-0.04138183593749999
-0.03460693359375
-0.027648925781249997
-0.025634765625
-0.037353515625
-0.04431152343749999
-0.03918457031249999
-0.03369140624999999
-0.02490234375
-0.030395507812499997
-0.030395507812499997
-0.02252197265625
-0.025817871093749997
-0.0377197265625
-0.04010009765624999
-0.0435791015625
-0.040283203125
-0.02838134765625
-0.0223388671875
-0.02142333984375
-0.01629638671875
-0.02288818359375
-0.03277587890624999
-0.02471923828125
-0.01080322265625
-0.01190185546875
-0.0087890625
-0.008422851562499998
-0.018310546875
-0.03533935546875
-0.03350830078124999
-0.01885986328125
0.0025634765624999996
0.005126953124999999
0.00091552734375
0.012084960937499998
0.02178955078125
0.027099609375
0.022705078125
0.014831542968750002
0.0146484375
0.02490234375
0.02728271484375
0.030395507812499997
0.03662109375
0.03973388671874999
0.0498046875
0.05145263671875
0.04669189453125
0.04119873046875
0.03826904296874999
0.04302978515625
0.05859375
0.03936767578125
0.04302978515625
0.05529785156249999
0.0615234375
0.05914306640624999
0.0640869140625
0.06243896484374999
0.04925537109374999
0.04779052734374999
0.0494384765625
0.05749511718750001
0.05474853515624999
0.06005859374999999
0.07342529296875
0.07891845703125
0.08221435546874999
0.0823974609375
0.0853271484375
0.09613037109375
0.09411621093749999
0.0926513671875
0.0963134765625
0.09906005859375
0.10418701171874999
0.10766601562499999
0.1160888671875
0.11810302734375
0.1204833984375
0.10821533203125
0.09906005859375
0.09301757812499999
0.09722900390625
0.10748291015625
0.09906005859375
0.09246826171875
0.09667968749999999
0.09851074218749999
0.1021728515625
0.10382080078124999
0.10491943359374999
0.09906005859375
0.09741210937499999
0.0963134765625
0.0897216796875
0.07708740234375
0.05841064453125001
0.0472412109375
0.027832031249999997
0.01263427734375
0.012084960937499998
0.01263427734375
-0.012451171875
-0.022705078125
-0.04119873046875
-0.0501708984375
-0.0457763671875
-0.0509033203125
-0.06536865234375
-0.07489013671874999
-0.090087890625
-0.09374999999999999
-0.0926513671875
-0.09722900390625
-0.0970458984375
-0.0897216796875
-0.0992431640625
-0.098876953125
-0.087158203125
-0.0963134765625
-0.107757568359375
-0.11920166015624999
-0.12542724609375
-0.10968017578125
-0.1153564453125
-0.11517333984374999
-0.11865234375000001
-0.12341308593749999
-0.11187744140625
-0.100341796875
-0.09777832031249999
-0.10418701171874999
-0.0897216796875
-0.08734130859374999
-0.11865234375000001
-0.1387939453125
-0.15051269531249997
-0.128173828125
-0.11389160156249999
-0.11645507812499999
-0.122314453125
-0.128173828125
-0.10986328125
-0.08276367187499999
-0.08294677734375
-0.1080322265625
-0.1204833984375
-0.1080322265625
-0.08276367187499999
-0.0849609375
-0.09594726562499999
-0.0963134765625
-0.09210205078125
-0.08935546875
-0.087890625
-0.08953857421874999
-0.091552734375
-0.07763671874999999
-0.07745361328125
-0.08111572265625
-0.0838623046875
-0.087890625
-0.08276367187499999
-0.0750732421875
-0.07836914062499999
-0.08166503906249999
-0.08331298828125
-0.07928466796875
-0.06298828125
-0.06427001953125
-0.09118652343749999
-0.10455322265624999
-0.0963134765625
-0.08642578125
-0.08917236328124999
-0.10345458984375
-0.104736328125
-0.09832763671875
-0.09411621093749999
-0.0919189453125
-0.07525634765624999
-0.05950927734375
-0.06005859374999999
-0.06317138671875
-0.0677490234375
-0.08129882812499999
-0.085693359375
-0.07836914062499999
-0.084228515625
-0.08697509765625
-0.0867919921875
-0.07910156249999999
-0.07397460937499999
-0.06884765625
-0.06372070312499999
-0.075439453125
-0.09118652343749999
-0.1021728515625
-0.09594726562499999
-0.07781982421875
-0.06738281249999999
-0.0706787109375
-0.06372070312499999
-0.06555175781249999
-0.0633544921875
-0.057861328125
-0.0531005859375
-0.061889648437499986
-0.0736083984375
-0.07177734375
-0.069580078125
-0.0728759765625
-0.0677490234375
-0.05639648437499999
-0.05474853515624999
-0.04852294921875
-0.04888916015624999
-0.052734375
-0.04705810546874999
-0.04815673828125
-0.061889648437499986
-0.06060791015625
-0.040283203125
-0.0347900390625
-0.03497314453125
-0.0201416015625
-0.02655029296875
-0.05474853515624999
-0.076171875
-0.0615234375
-0.04907226562499999
-0.029296875
-0.0311279296875
-0.03717041015625
-0.043212890625
-0.06170654296874999
-0.04193115234375
-0.04595947265625
-0.0325927734375
-0.02655029296875
-0.023437499999999997
-0.015014648437499998
0.0012817382812499998
0.0025634765624999996
-0.0091552734375
-0.02197265625
-0.020324707031249997
-0.0157470703125
-0.0014648437499999998
0.0062255859375
-0.006958007812499999
-0.018310546875
-0.0311279296875
-0.025634765625
-0.0142822265625
0.002197265625
0.0029296874999999996
0.02197265625
0.0347900390625
0.04010009765624999
0.03826904296874999
0.040283203125
0.03515625
0.027099609375
0.029113769531249997
0.0186767578125
0.0007324218749999999
-0.01373291015625
-0.0032958984375
-0.0113525390625
-0.032958984375
-0.027099609375
-0.0179443359375
-0.0252685546875
-0.024353027343749997
-0.010986328125
-0.011535644531249998
-0.02142333984375
-0.02728271484375
-0.02728271484375
-0.01318359375
-0.013916015624999998
-0.03021240234375
-0.03515625
-0.023437499999999997
-0.02655029296875
-0.023071289062499997
-0.015380859375
-0.0113525390625
-0.0087890625
-0.004211425781249999
-0.00036621093749999995
0.0025634765624999996
-0.006958007812499999
-0.020874023437499997
-0.022155761718749997
-0.015197753906249998
-0.006591796875
-0.0018310546875
0.0010986328125
0.00054931640625
-0.020507812499999997
-0.0377197265625
-0.0498046875
-0.03186035156249999
0.0018310546875
0.024169921874999997
0.06079101562499999
0.1021728515625
0.14886474609374997
0.21185302734375
0.29296875
0.36914062499999994
0.43359375
0.50390625
0.53521728515625
0.5570068359375
0.5595703125
0.53778076171875
0.46435546875
0.30487060546875
0.09851074218749999
-0.06536865234375
-0.14208984375
-0.18731689453124997
-0.1864013671875
-0.18457031249999997
-0.15838623046875
-0.13256835937499997
-0.123046875
-0.12414550781250001
-0.1083984375
-0.0772705078125
-0.0494384765625
-0.03405761718749999
-0.03222656249999999
-0.0252685546875
-0.006958007812499999
0.0032958984375
-0.00439453125
-0.01922607421875
-0.02655029296875
-0.027648925781249997
-0.0223388671875
-0.015380859375
-0.0172119140625
-0.035888671875
-0.0223388671875
-0.019775390624999997
-0.010253906249999998
-0.0032958984375
-0.01080322265625
-0.016113281249999997
-0.015380859375
-0.005859374999999999
-0.0172119140625
-0.03662109375
-0.03680419921875
-0.04742431640624999
-0.04174804687499999
-0.015014648437499998
-0.0142822265625
-0.0172119140625
-0.014831542968750002
-0.01812744140625
-0.00091552734375
0.0142822265625
0.028564453125
0.01922607421875
0.00732421875
-0.00036621093749999995
-0.0091552734375
0.0007324218749999999
0.027099609375
0.0355224609375
0.028015136718749997
0.0238037109375
0.02947998046875
0.03021240234375
0.03753662109375
0.04833984374999999
0.0684814453125
0.09210205078125
0.10015869140625
0.07525634765624999
0.04687499999999999
0.00018310546874999997
-0.026733398437499997
-0.023071289062499997
0.0014648437499999998
0.03863525390625
0.05822753906249999
0.05950927734375
0.06243896484374999
0.06079101562499999
0.05438232421874999
0.05603027343749999
0.05749511718750001
0.05218505859375
0.05859375
0.0853271484375
0.08038330078124999
0.0772705078125
0.08862304687499999
0.08441162109375
0.08093261718749999
0.09246826171875
0.10876464843749999
0.109130859375
0.10455322265624999
0.1007080078125
0.10986328125
0.11645507812499999
0.12890624999999997
0.1380615234375
0.13494873046875
0.1160888671875
0.10766601562499999
0.11737060546874999
0.12377929687499997
0.13311767578125
0.13623046874999997
0.13916015625
0.14025878906249997
0.14025878906249997
0.1494140625
0.1585693359375
0.1578369140625
0.14849853515625
0.1435546875
0.15673828124999997
0.181640625
0.17156982421875
0.1527099609375
0.14227294921875
0.1519775390625
0.17926025390625
0.1885986328125
0.16406249999999997
0.13531494140624997
0.120849609375
0.12341308593749999
0.129638671875
0.129638671875
0.1175537109375
0.11242675781249999
0.0867919921875
0.0509033203125
0.062255859375
0.08862304687499999
0.0867919921875
0.07836914062499999
0.0611572265625
0.03790283203124999
0.020965576171875
0.01263427734375
0.0087890625
-0.004943847656249999
0.009887695312499998
0.0201416015625
0.01666259765625
0.004028320312499999
-0.0135498046875
-0.036163330078125
-0.03424072265625
-0.02838134765625
-0.0172119140625
-0.023071289062499997
-0.0457763671875
-0.07177734375
-0.08862304687499999
-0.087158203125
-0.079833984375
-0.0633544921875
-0.0509033203125
-0.057861328125
-0.07745361328125
-0.09686279296874999
-0.09045410156249999
-0.07580566406249999
-0.0714111328125
-0.06939697265625
-0.0494384765625
-0.03863525390625
-0.04650878906249999
-0.05474853515624999
-0.0615234375
-0.0604248046875
-0.0435791015625
-0.04266357421875
-0.0596923828125
-0.0714111328125
-0.072509765625
-0.0640869140625
-0.06683349609375
-0.0728759765625
-0.061889648437499986
-0.04833984374999999
-0.047607421875
-0.0615234375
-0.0703125
-0.0523681640625
-0.03515625
-0.04302978515625
-0.04650878906249999
-0.030944824218749993
-0.0106201171875
-0.0142822265625
-0.03662109375
-0.0626220703125
-0.07580566406249999
-0.07177734375
-0.04962158203125
-0.03662109375
-0.03186035156249999
-0.029663085937500003
-0.0377197265625
-0.05383300781249999
-0.05804443359375
-0.05346679687499999
-0.05346679687499999
-0.050537109375
-0.044677734375
-0.04064941406249999
-0.0472412109375
-0.0603790283203125
-0.0640869140625
-0.05181884765625
-0.02838134765625
-0.0164794921875
-0.02252197265625
-0.027099609375
-0.027099609375
-0.027648925781249997
-0.02728271484375
-0.023986816406249997
-0.03186035156249999
-0.05822753906249999
-0.06134033203124999
-0.04595947265625
-0.03662109375
-0.04083251953124999
-0.03698730468749999
-0.030029296874999997
-0.030395507812499997
-0.02655029296875
-0.0289306640625
-0.030395507812499997
-0.03973388671874999
-0.05419921875
-0.05731201171874999
-0.05822753906249999
-0.04833984374999999
-0.0428466796875
-0.0501708984375
-0.04541015625
-0.03076171875
-0.03186035156249999
-0.030944824218749993
-0.027648925781249997
-0.0238037109375
-0.01885986328125
-0.017028808593749997
-0.0018310546875
-0.00640869140625
-0.023071289062499997
-0.029663085937500003
-0.0347900390625
-0.04339599609375
-0.04138183593749999
-0.02618408203125
-0.016845703124999997
-0.012451171875
-0.018493652343749997
-0.015380859375
-0.00238037109375
-0.003662109375
-0.00531005859375
-0.01190185546875
-0.01666259765625
-0.01885986328125
-0.019409179687499997
-0.0142822265625
-0.021240234375
-0.0238037109375
-0.015380859375
-0.01373291015625
-0.0014648437499999998
-0.0014648437499999998
-0.006958007812499999
-0.01300048828125
-0.017578125
-0.0146484375
-0.01318359375
-0.003662109375
-0.0025634765624999996
-0.00732421875
-0.0128173828125
-0.008056640624999998
0.002197265625
0.0128173828125
0.02728271484375
0.026733398437499997
0.0216064453125
0.01739501953125
0.027099609375
0.0274658203125
0.01922607421875
0.019775390624999997
0.019409179687499997
0.030029296874999997
0.03662109375
0.0347900390625
0.04156494140624999
0.04376220703125
0.0435791015625
0.0457763671875
0.034423828125
0.021240234375
0.010253906249999998
0.0106201171875
0.003662109375
0.0020141601562499996
0.014831542968750002
0.03680419921875
0.05639648437499999
0.05035400390625
0.02984619140625
0.015197753906249998
0.0172119140625
0.020507812499999997
0.0087890625
-0.004028320312499999
-0.004028320312499999
0.00036621093749999995
0.002197265625
0.0113525390625
0.02197265625
0.020690917968749997
0.025634765625
0.0450439453125
0.0428466796875
0.0238037109375
0.00787353515625
0.008056640624999998
0.0311279296875
0.04705810546874999
0.05126953125
0.04431152343749999
0.04614257812499999
0.0362548828125
0.0263671875
0.0333251953125
0.03131103515625
0.027832031249999997
0.035888671875
0.03405761718749999
0.027832031249999997
0.03918457031249999
0.0589599609375
0.06445312499999999
0.05694580078124999
0.03900146484375
0.03076171875
0.0274658203125
0.0263671875
0.02288818359375
0.027832031249999997
0.03186035156249999
0.0201416015625
0.0201416015625
0.03955078124999999
0.0457763671875
0.03826904296874999
0.03717041015625
0.04010009765624999
0.04101562499999999
0.03863525390625
0.04064941406249999
0.0523681640625
0.05566406249999999
0.05163574218749999
0.0498046875
0.05181884765625
0.05145263671875
0.06298828125
0.0736083984375
0.0867919921875
0.09100341796874999
0.08276367187499999
0.08367919921875
0.0853271484375
0.07012939453124999
0.0498046875
0.052734375
0.05694580078124999
0.0567626953125
0.05950927734375
0.06591796875
0.04705810546874999
0.03643798828125
0.0380859375
0.04650878906249999
0.05163574218749999
0.05511474609374999
0.05621337890624999
0.05603027343749999
0.0567626953125
0.05932617187500001
0.05163574218749999
0.0362548828125
0.030029296874999997
0.0362548828125
0.0311279296875
0.015380859375
0.0091552734375
0.01116943359375
0.012268066406249998
0.020507812499999997
0.0362548828125
0.025634765625
0.012084960937499998
0.010986328125
0.0135498046875
0.022155761718749997
0.029296875
0.03240966796875
0.025817871093749997
0.025817871093749997
0.020690917968749997
0.0216064453125
0.02545166015625
0.01885986328125
0.0179443359375
0.020507812499999997
0.010986328125
-0.0014648437499999998
0.004028320312499999
0.029113769531249997
0.072509765625
0.1080322265625
0.14172363281249997
0.18731689453124997
0.25616455078125
0.32611083984374994
0.396240234375
0.45941162109374994
0.50299072265625
0.53668212890625
0.5577392578125
0.5496826171875
0.533203125
0.45336914062499994
0.2742919921875
0.08038330078124999
-0.05639648437499999
-0.11975097656249999
-0.14794921874999997
-0.14154052734374997
-0.12322998046875001
-0.10272216796875
-0.10052490234374999
-0.09484863281249999
-0.090087890625
-0.066650390625
-0.047607421875
-0.03076171875
-0.01904296875
-0.009704589843749998
-0.0146484375
-0.016113281249999997
-0.01190185546875
0.00018310546874999997
0.0087890625
0.006591796875
-0.00823974609375
-0.01318359375
-0.01300048828125
-0.014099121093749998
-0.01629638671875
-0.0216064453125
-0.023986816406249997
-0.01446533203125
0.0128173828125
0.02655029296875
0.01922607421875
0.015930175781249997
0.0274658203125
0.030395507812499997
0.00567626953125
0.00036621093749999995
0.009521484375
0.0106201171875
-0.00091552734375
0.00640869140625
0.01190185546875
-0.00274658203125
-0.0062255859375
-0.017578125
-0.01922607421875
-0.01666259765625
-0.0047607421875
-0.0029296874999999996
-0.0034790039062499996
0.00439453125
0.024536132812499997
0.03698730468749999
0.03918457031249999
0.04119873046875
0.04101562499999999
0.044677734375
0.04431152343749999
0.04248046875
0.0399169921875
0.03460693359375
0.0355224609375
0.04541015625
0.07177734375
0.08935546875
0.0732421875
0.047607421875
0.05419921875
0.05035400390625
0.0399169921875
0.03240966796875
0.03424072265625
0.032958984375
0.0252685546875
0.02655029296875
0.04101562499999999
0.05859375
0.07910156249999999
0.07672119140625
0.07836914062499999
0.090087890625
0.07818603515625
0.0457763671875
0.0439453125
0.06536865234375
0.08312988281249999
0.0889892578125
0.07818603515625
0.06701660156249999
0.05364990234375
0.04138183593749999
0.04833984374999999
0.06079101562499999
0.06719970703125
0.069580078125
0.0728759765625
0.0780029296875
0.07763671874999999
0.0838623046875
0.1080322265625
0.10162353515625
0.069580078125
0.08056640625
0.10107421875
0.10400390625
0.10675048828125
0.1058349609375
0.10876464843749999
0.12030029296874999
0.129638671875
0.14172363281249997
0.14556884765625
0.1376953125
0.13055419921875003
0.12268066406249999
0.1083984375
0.10107421875
0.09411621093749999
0.09906005859375
0.1080322265625
0.1072998046875
0.1014404296875
0.10107421875
0.1080322265625
0.11315917968749999
0.106201171875
0.0933837890625
0.09118652343749999
0.0849609375
0.066650390625
0.05566406249999999
0.0589599609375
0.0648193359375
0.0523681640625
0.03369140624999999
0.0252685546875
0.021240234375
0.003662109375
-0.0062255859375
-0.01904296875
-0.027832031249999997
-0.03277587890624999
-0.019775390624999997
-0.0025634765624999996
0.00164794921875
-0.009887695312499998
-0.030029296874999997
-0.04815673828125
-0.04833984374999999
-0.04248046875
-0.034423828125
-0.025817871093749997
-0.03076171875
-0.04248046875
-0.044677734375
-0.04541015625
-0.054931640625
-0.06701660156249999
-0.06317138671875
-0.0567626953125
-0.05163574218749999
-0.04174804687499999
-0.05383300781249999
-0.0633544921875
-0.05639648437499999
-0.04632568359375
-0.03955078124999999
-0.0380859375
-0.03955078124999999
-0.07653808593749999
-0.11499023437500001
-0.10107421875
-0.100341796875
-0.10455322265624999
-0.09667968749999999
-0.0875244140625
-0.0714111328125
-0.0684814453125
-0.07580566406249999
-0.08093261718749999
-0.0882568359375
-0.087158203125
-0.08203124999999999
-0.0780029296875
-0.08862304687499999
-0.099609375
-0.07891845703125
-0.04248046875
-0.03717041015625
-0.0362548828125
-0.03204345703125
-0.037353515625
-0.0435791015625
-0.0457763671875
-0.0439453125
-0.04412841796875
-0.0439453125
-0.04614257812499999
-0.04907226562499999
-0.0472412109375
-0.04687499999999999
-0.0596923828125
-0.075439453125
-0.08349609374999999
-0.0849609375
-0.08770751953124999
-0.07708740234375
-0.06701660156249999
-0.07012939453124999
-0.09027099609374999
-0.11920166015624999
-0.1336669921875
-0.13037109375
-0.07781982421875
-0.017578125
-0.03570556640625
-0.1373291015625
-0.14776611328125
-0.12194824218749999
-0.07489013671874999
-0.08184814453125
-0.0567626953125
-0.023071289062499997
-0.0029296874999999996
-0.0032958984375
-0.00933837890625
0.0029296874999999996
0.05346679687499999
0.0626220703125
0.011718749999999998
-0.03955078124999999
-0.06555175781249999
-0.08148193359375
-0.08129882812499999
-0.08184814453125
-0.08807373046875
-0.087890625
-0.05877685546875
-0.03186035156249999
-0.044677734375
-0.061889648437499986
-0.04687499999999999
-0.026733398437499997
-0.04614257812499999
-0.09173583984375
-0.10784912109375
-0.10455322265624999
-0.099609375
-0.09906005859375
-0.1021728515625
-0.10327148437499999
-0.0875244140625
-0.05603027343749999
-0.06170654296874999
-0.08074951171875
-0.08807373046875
-0.08935546875
-0.07708740234375
-0.06298828125
-0.0523681640625
-0.0428466796875
-0.03405761718749999
-0.030395507812499997
-0.02655029296875
-0.0223388671875
-0.01885986328125
-0.019409179687499997
-0.0172119140625
-0.018493652343749997
-0.03131103515625
-0.04083251953124999
-0.0435791015625
-0.04687499999999999
-0.0457763671875
-0.03662109375
-0.0355224609375
-0.0428466796875
-0.04797363281249999
-0.04687499999999999
-0.0387725830078125
-0.03369140624999999
-0.04248046875
-0.05255126953124999
-0.06573486328125
-0.0692138671875
-0.07177734375
-0.07269287109374999
-0.06591796875
-0.03570556640625
-0.0091552734375
0.004943847656249999
0.0146484375
0.007507324218749999
-0.00567626953125
-0.0142822265625
-0.018310546875
-0.0113525390625
-0.009521484375
-0.020874023437499997
-0.03222656249999999
-0.0384521484375
-0.02105712890625
0.00677490234375
0.00238037109375
0.0091552734375
0.006958007812499999
-0.011535644531249998
-0.016113281249999997
-0.0201416015625
-0.019775390624999997
-0.0096588134765625
-0.00439453125
-0.015014648437499998
-0.023071289062499997
-0.023986816406249997
-0.012084960937499998
-0.0135498046875
-0.00677490234375
-0.0029296874999999996
0.00457763671875
-0.00732421875
-0.028747558593750003
-0.0428466796875
-0.04156494140624999
-0.0347900390625
-0.032958984375
-0.02838134765625
-0.03222656249999999
-0.0333251953125
-0.00384521484375
0.0274658203125
0.03222656249999999
0.0142822265625
-0.01263427734375
-0.025817871093749997
-0.03277587890624999
-0.023437499999999997
-0.026916503906249997
-0.020507812499999997
-0.0014648437499999998
0.00384521484375
0.00274658203125
0.0076904296875
0.01263427734375
0.00787353515625
-0.00091552734375
-0.006958007812499999
-0.0087890625
-0.0047607421875
-0.00238037109375
0.0012817382812499998
0.00823974609375
0.0091552734375
0.010986328125
0.007507324218749999
0.0076904296875
0.009704589843749998
0.0014648437499999998
0.004943847656249999
0.0032958984375
-0.006591796875
-0.012451171875
-0.0146484375
-0.0106201171875
-0.0029296874999999996
-0.0025634765624999996
-0.009887695312499998
-0.029663085937500003
-0.011535644531249998
0.015014648437499998
0.009521484375
0.0018310546875
-0.009887695312499998
-0.0260009765625
-0.03186035156249999
-0.023254394531249997
-0.015014648437499998
0.002197265625
0.023437499999999997
0.02947998046875
0.01812744140625
0.01373291015625
0.00567626953125
-0.01666259765625
-0.04046630859374999
-0.04339599609375
-0.02471923828125
0.0018310546875
0.04559326171874999
0.08862304687499999
0.1204833984375
0.17687988281249997
0.2596435546875
0.337646484375
0.41235351562499994
0.485595703125
0.54034423828125
0.582275390625
0.614501953125
0.6265869140624999
0.6258544921875
0.5271606445312499
0.31292724609375
0.04888916015624999
-0.1534423828125
-0.23767089843749997
-0.23345947265625
-0.2003173828125
-0.1827392578125
-0.16497802734375
-0.13623046874999997
-0.11590576171875
-0.12213134765625
-0.113525390625
-0.0963134765625
-0.08642578125
-0.0721435546875
-0.06701660156249999
-0.069580078125
-0.054931640625
-0.0355224609375
-0.0355224609375
-0.04101562499999999
-0.04541015625
-0.054931640625
-0.08184814453125
-0.0992431640625
-0.09228515624999999
-0.06683349609375
-0.071044921875
-0.07379150390624999
-0.06317138671875
-0.05108642578125
-0.03076171875
-0.02105712890625
-0.02655029296875
-0.03497314453125
-0.031494140625
-0.0263671875
-0.023437499999999997
-0.012084960937499998
-0.013916015624999998
-0.019409179687499997
-0.0142822265625
-0.02142333984375
-0.0362548828125
-0.0472412109375
-0.0677490234375
-0.09228515624999999
-0.094482421875
-0.0692138671875
-0.04925537109374999
-0.01995849609375
-0.01446533203125
-0.0439453125
-0.040283203125
-0.0494384765625
-0.06024169921875
-0.05914306640624999
-0.04962158203125
-0.0472412109375
-0.04632568359375
-0.050537109375
-0.0421142578125
-0.0157470703125
-0.00714111328125
0.0007324218749999999
0.00238037109375
0.0029296874999999996
0.008422851562499998
0.020690917968749997
0.0325927734375
0.028015136718749997
0.012084960937499998
0.026733398437499997
0.009887695312499998
-0.0034790039062499996
0.009887695312499998
0.026733398437499997
0.03424072265625
0.03863525390625
0.035888671875
0.0380859375
0.044677734375
0.04119873046875
0.0355224609375
0.029663085937500003
0.0289306640625
0.050537109375
0.06445312499999999
0.0684814453125
0.06793212890625
0.075439453125
0.0867919921875
0.0780029296875
0.0567626953125
0.05218505859375
0.05639648437499999
0.05859375
0.0626220703125
0.06701660156249999
0.0611572265625
0.0567626953125
0.062255859375
0.069580078125
0.06719970703125
0.06884765625
0.06097412109374999
0.05145263671875
0.06555175781249999
0.0736083984375
0.0860595703125
0.09063720703125
0.1025390625
0.11462402343749999
0.10345458984375
0.09118652343749999
0.09228515624999999
0.10748291015625
0.11279296874999999
0.1036376953125
0.0919189453125
0.08917236328124999
0.08276367187499999
0.0860595703125
0.07745361328125
0.07745361328125
0.065185546875
0.06701660156249999
0.0531005859375
0.029296875
0.004211425781249999
-0.00054931640625
-0.00091552734375
-0.00860595703125
-0.01007080078125
-0.00897216796875
-0.016113281249999997
-0.040283203125
-0.05218505859375
-0.04797363281249999
-0.06005859374999999
-0.05346679687499999
-0.0347900390625
-0.0380859375
-0.05035400390625
-0.052001953125
-0.04687499999999999
-0.05584716796875
-0.0648193359375
-0.05566406249999999
-0.0787353515625
-0.10327148437499999
-0.1190185546875
-0.12359619140625
-0.11407470703125
-0.11553955078124999
-0.12194824218749999
-0.1025390625
-0.07653808593749999
-0.07653808593749999
-0.0897216796875
-0.1021728515625
-0.09942626953124999
-0.09594726562499999
-0.1014404296875
-0.08917236328124999
-0.09594726562499999
-0.11572265625
-0.11297607421875
-0.11242675781249999
-0.09942626953124999
-0.094482421875
-0.09228515624999999
-0.10601806640624999
-0.09777832031249999
-0.09777832031249999
-0.10107421875
-0.101806640625
-0.09594726562499999
-0.0908203125
-0.09558105468749999
-0.09741210937499999
-0.09411621093749999
-0.0867919921875
-0.08551025390625
-0.09301757812499999
-0.10125732421874999
-0.11059570312499999
-0.10638427734374999
-0.087158203125
-0.08642578125
-0.07397460937499999
-0.0615234375
-0.04815673828125
-0.0531005859375
-0.04962158203125
-0.04962158203125
-0.06610107421875
-0.075439453125
-0.0736083984375
-0.07525634765624999
-0.08770751953124999
-0.094482421875
-0.104736328125
-0.11682128906250001
-0.09741210937499999
-0.09301757812499999
-0.1007080078125
-0.11297607421875
-0.13238525390625
-0.12982177734375
-0.11773681640625
-0.11865234375000001
-0.1212158203125
-0.10235595703124999
-0.06610107421875
-0.021240234375
-0.027099609375
-0.057861328125
-0.06811523437499999
-0.06372070312499999
-0.04833984374999999
-0.05511474609374999
-0.05987548828124999
-0.05163574218749999
-0.0509033203125
-0.06079101562499999
-0.0626220703125
-0.0684814453125
-0.07470703125
-0.08331298828125
-0.08935546875
-0.08514404296875
-0.09814453124999999
-0.12359619140625
-0.12011718749999999
-0.1109619140625
-0.11077880859375
-0.09411621093749999
-0.05841064453125001
-0.03424072265625
-0.01922607421875
-0.00860595703125
-0.0025634765624999996
-0.01922607421875
-0.0567626953125
-0.09027099609374999
-0.08441162109375
-0.09814453124999999
-0.12451171875
-0.12194824218749999
-0.10107421875
-0.08880615234375
-0.07452392578124999
-0.0494384765625
-0.0274658203125
-0.0399169921875
-0.0421142578125
-0.04742431640624999
-0.044677734375
-0.05346679687499999
-0.03405761718749999
-0.01446533203125
-0.018493652343749997
-0.03021240234375
-0.03405761718749999
-0.027648925781249997
-0.02471923828125
-0.020507812499999997
-0.02471923828125
-0.0380859375
-0.0377197265625
-0.01556396484375
0.0007324218749999999
-0.0047607421875
0.022155761718749997
0.04595947265625
-0.00036621093749999995
-0.04376220703125
-0.0640869140625
-0.06427001953125
-0.0703125
-0.06463623046875
-0.04797363281249999
-0.05767822265625
-0.066650390625
-0.04870605468749999
-0.023071289062499997
-0.044677734375
-0.06207275390625001
-0.05621337890624999
-0.04925537109374999
-0.0439453125
-0.0494384765625
-0.05767822265625
-0.05932617187500001
-0.05328369140625
-0.0435791015625
-0.04064941406249999
-0.04010009765624999
-0.032958984375
-0.0216064453125
-0.020507812499999997
-0.02142333984375
-0.029296875
-0.0333251953125
-0.022155761718749997
-0.01904296875
-0.04541015625
-0.03881835937499999
-0.015380859375
0.021240234375
0.0377197265625
0.04687499999999999
0.05566406249999999
0.05932617187500001
0.0706787109375
0.066650390625
0.04376220703125
0.0311279296875
0.028198242187499997
0.01776123046875
0.025634765625
0.02984619140625
0.020324707031249997
-0.0172119140625
-0.028564453125
-0.03167724609375
-0.03076171875
-0.03863525390625
-0.06207275390625001
-0.06390380859375
-0.05712890625
-0.03881835937499999
-0.012451171875
0.023437499999999997
0.04248046875
0.043212890625
0.0435791015625
0.030029296874999997
0.01556396484375
0.01446533203125
0.015197753906249998
0.0113525390625
0.009887695312499998
-0.00091552734375
-0.00897216796875
-0.0179443359375
-0.016113281249999997
-0.006042480468749999
-0.0062255859375
-0.020507812499999997
-0.023071289062499997
-0.009704589843749998
-0.006042480468749999
-0.01318359375
-0.0091552734375
-0.006958007812499999
-0.0135498046875
-0.024169921874999997
-0.04852294921875
-0.05566406249999999
-0.04376220703125
-0.040283203125
-0.01904296875
0.0054931640625
0.05383300781249999
0.11883544921874999
0.16864013671875
0.22210693359375
0.27630615234375
0.35174560546874994
0.431396484375
0.49072265624999994
0.5526123046875
0.6355590820312499
0.6956176757812499
0.69268798828125
0.5808105468749999
0.3900146484375
0.19976806640624997
0.03057861328125
-0.13311767578125
-0.1944580078125
-0.20306396484375
-0.19171142578125
-0.199951171875
-0.186767578125
-0.170654296875
-0.16186523437499997
-0.1409912109375
-0.09906005859375
-0.06317138671875
-0.04541015625
-0.030029296874999997
-0.026916503906249997
-0.023071289062499997
-0.023437499999999997
-0.02947998046875
-0.03515625
-0.03570556640625
-0.0333251953125
-0.0498046875
-0.061889648437499986
-0.06555175781249999
-0.0648193359375
-0.069580078125
-0.05767822265625
-0.03424072265625
-0.019409179687499997
0.0020141601562499996
0.002197265625
-0.008422851562499998
-0.015014648437499998
-0.02288818359375
-0.04193115234375
-0.04907226562499999
-0.03790283203124999
-0.023254394531249997
-0.0263671875
-0.021240234375
-0.0087890625
-0.023254394531249997
-0.03698730468749999
-0.03131103515625
-0.0252685546875
-0.02490234375
-0.028747558593750003
-0.0263671875
-0.016845703124999997
-0.015930175781249997
-0.016845703124999997
-0.01922607421875
-0.02197265625
-0.023071289062499997
-0.0186767578125
-0.0146484375
-0.0128173828125
-0.018493652343749997
-0.020690917968749997
-0.0223388671875
-0.0186767578125
-0.0135498046875
-0.00531005859375
-0.015380859375
-0.023071289062499997
-0.0263671875
-0.014831542968750002
-0.023071289062499997
-0.006042480468749999
0.02142333984375
0.04870605468749999
0.07470703125
0.0780029296875
0.06811523437499999
0.07196044921874999
0.0531005859375
0.0523681640625
0.05932617187500001
0.054931640625
0.04797363281249999
0.03881835937499999
0.0380859375
0.047607421875
0.054931640625
0.05163574218749999
0.04541015625
0.0362548828125
0.04101562499999999
0.04266357421875
0.04522705078124999
0.03350830078124999
0.03863525390625
0.047607421875
0.05822753906249999
0.0640869140625
0.08166503906249999
0.08477783203124999
0.07562255859374999
0.075439453125
0.06939697265625
0.04138183593749999
0.009704589843749998
0.012084960937499998
0.023071289062499997
0.01556396484375
0.002197265625
-0.0018310546875
0.0128173828125
0.0457763671875
0.069580078125
0.10784912109375
0.12890624999999997
0.13824462890625
0.1395263671875
0.136962890625
0.14392089843749997
0.1629638671875
0.16186523437499997
0.13476562499999997
0.10968017578125
0.10546875
0.11572265625
0.10546875
0.08148193359375
0.0640869140625
0.04833984374999999
0.04101562499999999
0.0399169921875
0.03131103515625
0.0135498046875
-0.027099609375
-0.03662109375
-0.03680419921875
-0.04010009765624999
-0.03424072265625
-0.009887695312499998
-0.020507812499999997
-0.0362548828125
-0.031494140625
-0.0362548828125
-0.040283203125
-0.0435791015625
-0.06161499023437501
-0.07470703125
-0.08660888671874999
-0.08935546875
-0.0867919921875
-0.0882568359375
-0.0867919921875
-0.0889892578125
-0.09484863281249999
-0.11004638671875
-0.12322998046875001
-0.11737060546874999
-0.09979248046875
-0.09283447265625
-0.10345458984375
-0.10675048828125
-0.1083984375
-0.10400390625
-0.10821533203125
-0.10784912109375
-0.08642578125
-0.0699462890625
-0.065185546875
-0.07635498046875
-0.0992431640625
-0.1007080078125
-0.09374999999999999
-0.0908203125
-0.0780029296875
-0.069580078125
-0.06793212890625
-0.0732421875
-0.08111572265625
-0.08880615234375
-0.08093261718749999
-0.079833984375
-0.08020019531249999
-0.08221435546874999
-0.07763671874999999
-0.076171875
-0.08331298828125
-0.1029052734375
-0.09741210937499999
-0.08038330078124999
-0.075439453125
-0.06884765625
-0.06298828125
-0.05474853515624999
-0.0399169921875
-0.0439453125
-0.06811523437499999
-0.06170654296874999
-0.04925537109374999
-0.04888916015624999
-0.0457763671875
-0.05346679687499999
-0.05621337890624999
-0.061889648437499986
-0.06500244140625
-0.0531005859375
-0.03314208984374999
-0.026916503906249997
-0.027648925781249997
-0.0362548828125
-0.031494140625
-0.01446533203125
-0.010986328125
-0.025634765625
-0.03863525390625
-0.044677734375
-0.04833984374999999
-0.04522705078124999
-0.04266357421875
-0.03698730468749999
-0.0333251953125
-0.0325927734375
-0.03405761718749999
-0.026916503906249997
-0.023986816406249997
-0.024169921874999997
-0.027648925781249997
-0.03643798828125
-0.050537109375
-0.06738281249999999
-0.06610107421875
-0.05511474609374999
-0.03643798828125
-0.0347900390625
-0.04431152343749999
-0.0421142578125
-0.0238037109375
-0.0157470703125
-0.0142822265625
-0.009704589843749998
-0.0325927734375
-0.05529785156249999
-0.0450439453125
-0.030395507812499997
-0.02947998046875
-0.03314208984374999
-0.0347900390625
-0.0325927734375
-0.02838134765625
-0.029663085937500003
-0.03607177734375
-0.02984619140625
-0.02252197265625
-0.02545166015625
-0.01318359375
-0.00164794921875
-0.00457763671875
-0.008056640624999998
0.0014648437499999998
-0.004211425781249999
-0.01446533203125
-0.0252685546875
-0.020324707031249997
-0.009887695312499998
-0.0054931640625
-0.01776123046875
-0.0252685546875
-0.0135498046875
-0.00531005859375
-0.007507324218749999
-0.0032958984375
-0.008056640624999998
-0.010437011718749998
0.010986328125
0.010253906249999998
0.0010986328125
-0.0010986328125
0.00384521484375
-0.0029296874999999996
-0.009887695312499998
-0.029663085937500003
-0.0333251953125
-0.027648925781249997
-0.0179443359375
-0.012084960937499998
-0.02197265625
-0.019409179687499997
-0.012451171875
-0.017028808593749997
-0.011535644531249998
-0.0091552734375
-0.010253906249999998
-0.013366699218749998
-0.00897216796875
-0.015014648437499998
-0.019409179687499997
0.00567626953125
0.00732421875
0.0020141601562499996
-0.00054931640625
-0.00238037109375
0.004211425781249999
0.0113525390625
0.0034790039062499996
-0.0252685546875
-0.021240234375
-0.01904296875
-0.02197265625
-0.016845703124999997
0.00531005859375
0.00933837890625
0.003662109375
0.01629638671875
0.03460693359375
0.04229736328125
0.0333251953125
0.01318359375
0.00531005859375
0.0201416015625
0.015014648437499998
0.0274658203125
0.037353515625
0.03021240234375
0.03717041015625
0.03680419921875
0.028015136718749997
0.04101562499999999
0.05511474609374999
0.06683349609375
0.08477783203124999
0.0743408203125
0.05255126953124999
0.04907226562499999
0.03350830078124999
0.02618408203125
0.030944824218749993
0.03222656249999999
0.0380859375
0.03515625
0.034423828125
0.0333251953125
0.03240966796875
0.02728271484375
0.02197265625
0.024169921874999997
0.022155761718749997
0.022705078125
0.03314208984374999
0.0384521484375
0.01904296875
0.01116943359375
0.024536132812499997
0.019592285156249997
0.012451171875
0.012268066406249998
-0.00164794921875
0.0025634765624999996
0.0076904296875
0.0113525390625
0.012084960937499998
0.015014648437499998
0.0186767578125
0.02142333984375
0.02197265625
0.01904296875
0.0216064453125
0.0274658203125
0.024353027343749997
0.0135498046875
0.00054931640625
-0.00933837890625
-0.0164794921875
-0.003662109375
0.0032958984375
0.01812744140625
0.05163574218749999
0.0823974609375
0.12377929687499997
0.1864013671875
0.26165771484375
0.3248291015625
0.3885498046875
0.4669189453125
0.5132446289062499
0.5535278320312499
0.58685302734375
0.5950927734375
0.5641479492187499
0.43981933593749994
0.24938964843749997
0.07562255859374999
-0.027648925781249997
-0.0963134765625
-0.1263427734375
-0.13018798828124997
-0.1190185546875
-0.11590576171875
-0.11151123046874999
-0.0728759765625
-0.029663085937500003
-0.0029296874999999996
0.0062255859375
-0.00732421875
-0.002197265625
0.00732421875
0.011718749999999998
0.00714111328125
-0.015380859375
-0.03222656249999999
-0.027832031249999997
-0.028747558593750003
-0.024169921874999997
-0.01556396484375
-0.01373291015625
-0.0062255859375
0.0034790039062499996
-0.0007324218749999999
-0.024353027343749997
-0.03204345703125
-0.023437499999999997
-0.012268066406249998
-0.01446533203125
-0.023254394531249997
-0.03076171875
-0.0428466796875
-0.0472412109375
-0.04083251953124999
-0.02142333984375
-0.00567626953125
-0.0012817382812499998
0.0010986328125
-0.006958007812499999
-0.0018310546875
-0.00018310546874999997
-0.00457763671875
-0.015380859375
-0.020507812499999997
-0.024169921874999997
-0.023071289062499997
-0.0201416015625
-0.022155761718749997
-0.0146484375
0.00311279296875
0.02105712890625
0.0223388671875
0.01318359375
0.0113525390625
0.005859374999999999
-0.0007324218749999999
-0.00457763671875
-0.009521484375
-0.015380859375
-0.013916015624999998
-0.00732421875
-0.0014648437499999998
0.015380859375
0.028198242187499997
0.029113769531249997
0.020507812499999997
0.015930175781249997
0.016845703124999997
0.020690917968749997
0.028564453125
0.04779052734374999
0.04595947265625
0.029159545898437497
0.0263671875
0.0128173828125
-0.01629638671875
-0.006591796875
0.01373291015625
0.017578125
0.0146484375
0.01922607421875
0.0377197265625
0.04339599609375
0.03973388671874999
0.04614257812499999
0.05346679687499999
0.06866455078125
0.07012939453124999
0.06829833984374999
0.06866455078125
0.07489013671874999
0.0626220703125
0.047607421875
0.0421142578125
0.0604248046875
0.04870605468749999
0.03955078124999999
0.05291748046875
0.0589599609375
0.06024169921875
0.05328369140625
0.05072021484375
0.05639648437499999
0.069580078125
0.069580078125
0.07470703125
0.084228515625
0.10235595703124999
0.1036376953125
0.09613037109375
0.09356689453125
0.0897216796875
0.07708740234375
0.08129882812499999
0.08514404296875
0.0750732421875
0.07159423828125
0.08258056640625
0.09320068359375
0.11059570312499999
0.10876464843749999
0.07415771484375
0.0498046875
0.032958984375
0.0216064453125
0.012451171875
0.009521484375
0.01904296875
0.03662109375
0.01318359375
-0.01666259765625
-0.040283203125
-0.015014648437499998
-0.011535644531249998
-0.01812744140625
-0.032958984375
-0.04339599609375
-0.040283203125
-0.04797363281249999
-0.05859375
-0.0692138671875
-0.0860595703125
-0.08148193359375
-0.07946777343749999
-0.0860595703125
-0.09246826171875
-0.10272216796875
-0.10345458984375
-0.104278564453125
-0.09906005859375
-0.0875244140625
-0.07781982421875
-0.08020019531249999
-0.08093261718749999
-0.08624267578125
-0.0867919921875
-0.08001708984375
-0.069580078125
-0.0648193359375
-0.07232666015625
-0.08148193359375
-0.08660888671874999
-0.0860595703125
-0.07910156249999999
-0.07177734375
-0.06555175781249999
-0.065185546875
-0.07781982421875
-0.08514404296875
-0.0750732421875
-0.047607421875
-0.040283203125
-0.044677734375
-0.06024169921875
-0.0706787109375
-0.079833984375
-0.0849609375
-0.094482421875
-0.09851074218749999
-0.09979248046875
-0.091552734375
-0.10345458984375
-0.10089111328125
-0.09411621093749999
-0.09558105468749999
-0.08312988281249999
-0.08020019531249999
-0.07452392578124999
-0.0640869140625
-0.07232666015625
-0.08093261718749999
-0.08203124999999999
-0.08203124999999999
-0.07305908203124999
-0.0604248046875
-0.05291748046875
-0.06024169921875
-0.06701660156249999
-0.069580078125
-0.0648193359375
-0.054931640625
-0.06353759765625
-0.06555175781249999
-0.06079101562499999
-0.0596923828125
-0.061889648437499986
-0.06738281249999999
-0.071044921875
-0.06738281249999999
-0.05621337890624999
-0.03790283203124999
-0.028198242187499997
-0.01885986328125
-0.010253906249999998
-0.0054931640625
0.005859374999999999
0.016845703124999997
0.019592285156249997
-0.004211425781249999
-0.0252685546875
-0.0223388671875
-0.03955078124999999
-0.05346679687499999
-0.0611572265625
-0.06060791015625
-0.06463623046875
-0.0743408203125
-0.07781982421875
-0.07855224609375
-0.08001708984375
-0.07855224609375
-0.07562255859374999
-0.06390380859375
-0.044677734375
-0.02508544921875
-0.013366699218749998
0.0106201171875
0.016845703124999997
0.012084960937499998
0.0029296874999999996
-0.018493652343749997
-0.03955078124999999
-0.05603027343749999
-0.06372070312499999
-0.066650390625
-0.06591796875
-0.06500244140625
-0.05731201171874999
-0.0472412109375
-0.026733398437499997
-0.00164794921875
0.0076904296875
-0.00860595703125
-0.04138183593749999
-0.05841064453125001
-0.05163574218749999
-0.04815673828125
-0.040283203125
-0.028747558593750003
-0.035888671875
-0.040283203125
-0.03167724609375
-0.0223388671875
-0.020324707031249997
-0.012451171875
0.0025634765624999996
0.0020141601562499996
-0.00531005859375
-0.0047607421875
0.004943847656249999
0.0142822265625
0.014831542968750002
0.006591796875
0.00036621093749999995
-0.0047607421875
0.00054931640625
0.010253906249999998
0.00238037109375
-0.0029296874999999996
0.0034790039062499996
0.0029296874999999996
-0.00238037109375
-0.0087890625
-0.00677490234375
-0.004028320312499999
0.0007324218749999999
0.0087890625
0.013916015624999998
0.01904296875
0.025817871093749997
0.04064941406249999
0.0567626953125
0.05731201171874999
0.013916015624999998
-0.0179443359375
-0.040283203125
-0.0435791015625
-0.01318359375
0.0135498046875
0.022705078125
0.027832031249999997
0.028564453125
0.03350830078124999
0.04193115234375
0.03222656249999999
0.0128173828125
0.012084960937499998
0.016845703124999997
0.01263427734375
0.01007080078125
0.0135498046875
0.02838134765625
0.025817871093749997
0.01666259765625
0.00567626953125
-0.00567626953125
-0.009521484375
0.0029296874999999996
0.019775390624999997
0.015380859375
0.01666259765625
0.019592285156249997
0.0216064453125
0.016113281249999997
0.0128173828125
0.026916503906249997
0.0384521484375
0.02655029296875
0.008056640624999998
-0.00567626953125
-0.006042480468749999
-0.00567626953125
0.0014648437499999998
-0.0047607421875
-0.0135498046875
-0.029663085937500003
-0.0384521484375
-0.0457763671875
-0.0263671875
-0.01904296875
-0.024353027343749997
-0.0311279296875
-0.03405761718749999
-0.03662109375
-0.0428466796875
-0.04156494140624999
-0.037353515625
-0.00054931640625
0.015930175781249997
-0.015930175781249997
-0.0263671875
-0.018310546875
-0.008422851562499998
-0.00732421875
-0.01776123046875
-0.02490234375
-0.01776123046875
-0.004028320312499999
0.005859374999999999
0.019592285156249997
0.03076171875
0.0260009765625
0.021240234375
0.029113769531249997
0.028564453125
0.02197265625
-0.0025634765624999996
-0.0106201171875
-0.01776123046875
-0.030395507812499997
-0.03222656249999999
-0.0157470703125
-0.0172119140625
-0.02362060546875
-0.022155761718749997
-0.0157470703125
-0.014831542968750002
-0.015197753906249998
-0.0172119140625
-0.01300048828125
-0.0157470703125
-0.02618408203125
-0.04650878906249999
-0.04595947265625
-0.03973388671874999
-0.05072021484375
-0.05328369140625
-0.05529785156249999
-0.04833984374999999
-0.04064941406249999
-0.03387451171875
-0.03973388671874999
-0.072509765625
-0.07745361328125
-0.0611572265625
-0.065185546875
-0.09374999999999999
-0.09814453124999999
-0.09466552734375
-0.09173583984375
-0.094482421875
-0.0908203125
-0.08734130859374999
-0.09576416015625
-0.0992431640625
-0.09228515624999999
-0.0750732421875
-0.069580078125
-0.05804443359375
-0.03662109375
0.005126953124999999
0.05639648437499999
0.09374999999999999
0.15380859375
0.23382568359374997
0.2969970703125
0.34716796875
0.40228271484374994
0.451904296875
0.488525390625
0.48138427734374994
0.45117187499999994
0.36126708984375
0.18603515624999997
-0.016113281249999997
-0.2069091796875
-0.29516601562499994
-0.32098388671874994
-0.31256103515625
-0.28125
-0.24389648437499997
-0.23345947265625
-0.230712890625
-0.2193603515625
-0.19372558593749997
-0.18823242187499997
-0.170654296875
-0.11700439453124999
-0.06463623046875
-0.05731201171874999
-0.08129882812499999
-0.10272216796875
-0.11462402343749999
-0.12689208984375
-0.14758300781249997
-0.16058349609375
-0.16644287109375
-0.16131591796875
-0.15234375
-0.13110351562499997
-0.117919921875
-0.104736328125
-0.10510253906249999
-0.09979248046875
-0.09301757812499999
-0.0875244140625
-0.09356689453125
-0.11407470703125
-0.12579345703125
-0.10638427734374999
-0.090087890625
-0.09759521484375
-0.09100341796874999
-0.09667968749999999
-0.0992431640625
-0.11334228515624999
-0.117919921875
-0.11059570312499999
-0.0992431640625
-0.0926513671875
-0.08093261718749999
-0.07708740234375
-0.091552734375
-0.10693359374999999
-0.104736328125
-0.099609375
-0.09374999999999999
-0.085693359375
-0.0838623046875
-0.08074951171875
-0.0750732421875
-0.06683349609375
-0.05877685546875
-0.05603027343749999
-0.06280517578125
-0.06353759765625
-0.062255859375
-0.06005859374999999
-0.0589599609375
-0.06024169921875
-0.0596923828125
-0.05346679687499999
-0.04431152343749999
-0.03881835937499999
-0.03204345703125
-0.020507812499999997
-0.015930175781249997
-0.023437499999999997
-0.0355224609375
-0.04486083984375
-0.05181884765625
-0.05657958984374999
-0.04998779296875
-0.03424072265625
-0.02655029296875
-0.020507812499999997
-0.0091552734375
-0.003662109375
-0.0020141601562499996
-0.00439453125
-0.0142822265625
-0.01263427734375
-0.0142822265625
-0.0325927734375
-0.035888671875
-0.0311279296875
-0.029113769531249997
-0.023071289062499997
-0.01190185546875
-0.020507812499999997
-0.032958984375
-0.03204345703125
-0.028747558593750003
-0.01812744140625
0.00457763671875
0.01922607421875
0.030944824218749993
0.023437499999999997
0.00274658203125
-0.004028320312499999
-0.006591796875
-0.014099121093749998
-0.0157470703125
-0.014968872070312498
-0.012268066406249998
0.02471923828125
0.05346679687499999
0.03515625
0.0087890625
-0.005859374999999999
-0.0047607421875
-0.00732421875
-0.013366699218749998
-0.010253906249999998
0.005859374999999999
0.008056640624999998
-0.00054931640625
-0.0164794921875
-0.01190185546875
-0.00640869140625
-0.012084960937499998
-0.024169921874999997
-0.030395507812499997
-0.0362548828125
-0.04248046875
-0.0523681640625
-0.06427001953125
-0.06701660156249999
-0.07965087890625
-0.09374999999999999
-0.09228515624999999
-0.08843994140624999
-0.09374999999999999
-0.12487792968749999
-0.14794921874999997
-0.14483642578125
-0.14904785156249997
-0.14996337890625
-0.1614990234375
-0.16864013671875
-0.17468261718749997
-0.18292236328125
-0.1947784423828125
-0.20635986328125
-0.20617675781249997
-0.2003173828125
-0.19335937499999997
-0.21917724609374997
-0.23840332031249997
-0.23840332031249997
-0.23675537109374997
-0.2135009765625
-0.20086669921875
-0.18585205078125
-0.17926025390625
-0.1761474609375
-0.18090820312499997
-0.183837890625
-0.172119140625
-0.1658935546875
-0.156005859375
-0.14172363281249997
-0.15032958984374997
-0.17486572265625
-0.18475341796874997
-0.16845703125
-0.16497802734375
-0.1666259765625
-0.20983886718749997
-0.24133300781249997
-0.23785400390625
-0.204345703125
-0.18109130859374997
-0.23272705078125
-0.25653076171875
-0.23345947265625
-0.2156982421875
-0.19976806640624997
-0.21020507812499997
-0.24023437499999997
-0.2314453125
-0.20654296874999997
-0.19500732421875
-0.19354248046875
-0.185302734375
-0.181640625
-0.19134521484375
-0.1951904296875
-0.19610595703124997
-0.19610595703124997
-0.19702148437499997
-0.2003173828125
-0.19482421874999997
-0.19354248046875
-0.1966552734375
-0.19702148437499997
-0.20379638671874997
-0.202789306640625
-0.1907958984375
-0.18658447265625
-0.202880859375
-0.22119140624999997
-0.21697998046875
-0.20617675781249997
-0.19427490234375
-0.18255615234375
-0.208740234375
-0.23931884765624997
-0.2640380859375
-0.2662353515625
-0.263671875
-0.2618408203125
-0.23895263671875
-0.23016357421874997
-0.23583984375
-0.23382568359374997
-0.238037109375
-0.21386718749999997
-0.20343017578124997
-0.21661376953124997
-0.2197265625
-0.2054443359375
-0.198486328125
-0.19573974609375
-0.18878173828125
-0.19372558593749997
-0.19482421874999997
-0.1878662109375
-0.1893310546875
-0.20068359375
-0.19885253906249997
-0.19537353515625
-0.19610595703124997
-0.1907958984375
-0.20251464843749997
-0.214599609375
-0.20654296874999997
-0.186767578125
-0.19482421874999997
-0.20251464843749997
-0.19628906249999997
-0.194091796875
-0.19647216796875
-0.2017822265625
-0.205078125
-0.19628906249999997
-0.15948486328124997
-0.11773681640625
-0.12451171875
-0.144287109375
-0.1494140625
-0.1329345703125
-0.1204833984375
-0.15234375
-0.1787109375
-0.18457031249999997
-0.17230224609375
-0.16442871093749997
-0.18237304687499997
-0.194091796875
-0.19281005859375
-0.1849365234375
-0.18292236328125
-0.17578125
-0.16790771484375
-0.1549072265625
-0.14447021484375
-0.13970947265625
-0.13256835937499997
-0.11920166015624999
-0.11553955078124999
-0.11187744140625
-0.10931396484375
-0.1083984375
-0.1083984375
-0.11004638671875
-0.1142578125
-0.12268066406249999
-0.13330078125
-0.13934326171875
-0.13476562499999997
-0.13348388671875
-0.1292724609375
-0.1380615234375
-0.13623046874999997
-0.13897705078124997
-0.149688720703125
-0.1358642578125
-0.11462402343749999
-0.10308837890624999
-0.09374999999999999
-0.08624267578125
-0.08349609374999999
-0.09613037109375
-0.10400390625
-0.1029052734375
-0.09851074218749999
-0.0845947265625
-0.07763671874999999
-0.0992431640625
-0.10510253906249999
-0.087158203125
-0.06280517578125
-0.04138183593749999
-0.04193115234375
-0.04522705078124999
-0.04248046875
-0.0498046875
-0.05621337890624999
-0.06610107421875
-0.0692138671875
-0.05859375
-0.0399169921875
-0.023437499999999997
-0.026916503906249997
-0.05145263671875
-0.05950927734375
-0.04541015625
-0.03900146484375
-0.04083251953124999
-0.0523681640625
-0.05932617187500001
-0.08093261718749999
-0.11462402343749999
-0.13531494140624997
-0.10876464843749999
-0.08129882812499999
-0.06591796875
-0.07525634765624999
-0.0823974609375
-0.0626220703125
-0.0523681640625
-0.05218505859375
-0.06024169921875
-0.08093261718749999
-0.09869384765624999
-0.11260986328125
-0.12158203124999999
-0.12615966796874997
-0.1212158203125
-0.09777832031249999
-0.08349609374999999
-0.0919189453125
-0.099609375
-0.08331298828125
-0.057861328125
-0.0604248046875
-0.08697509765625
-0.11224365234375
-0.1263427734375
-0.120849609375
-0.08843994140624999
-0.0472412109375
-0.009704589843749998
0.03021240234375
0.0897216796875
0.14813232421875
0.22998046875000003
0.31036376953125
0.40026855468749994
0.4951171874999999
0.55792236328125
0.5830078125
0.57861328125
0.5134277343749999
0.3358154296875
0.08935546875
-0.1263427734375
-0.24389648437499997
-0.29022216796875
-0.27740478515625
-0.24481201171874994
-0.21954345703125
-0.19953918457031247
-0.1651611328125
-0.14025878906249997
-0.11260986328125
-0.09979248046875
-0.09411621093749999
-0.087890625
-0.07891845703125
-0.07342529296875
-0.076171875
-0.08111572265625
-0.08166503906249999
-0.07653808593749999
-0.0677490234375
-0.07910156249999999
-0.08349609374999999
-0.0721435546875
-0.07598876953125
-0.07379150390624999
-0.06317138671875
-0.05950927734375
-0.06372070312499999
-0.06738281249999999
-0.06445312499999999
-0.0615234375
-0.05566406249999999
-0.03314208984374999
-0.0157470703125
-0.010437011718749998
-0.01446533203125
-0.020690917968749997
-0.035888671875
-0.04541015625
-0.03314208984374999
-0.029113769531249997
-0.023437499999999997
-0.022155761718749997
-0.026733398437499997
-0.034423828125
-0.0201416015625
-0.00018310546874999997
0.00091552734375
-0.006591796875
-0.005859374999999999
-0.0034790039062499996
-0.0032958984375
-0.004028320312499999
-0.0007324218749999999
0.0
0.0032958984375
0.00018310546874999997
0.009521484375
0.026916503906249997
0.028747558593750003
0.03240966796875
0.0355224609375
0.02618408203125
0.03057861328125
0.0435791015625
0.05621337890624999
0.062255859375
0.0684814453125
0.0721435546875
0.06884765625
0.05731201171874999
0.052001953125
0.03753662109375
0.0362548828125
0.049530029296875
0.0611572265625
0.0657806396484375
0.06829833984374999
0.0633544921875
0.05987548828124999
0.06372070312499999
0.07305908203124999
0.06701660156249999
0.0692138671875
0.0692138671875
0.0703125
0.0736083984375
0.07946777343749999
0.09594726562499999
0.1025390625
0.087158203125
0.08349609374999999
0.1083984375
0.10546875
0.09667968749999999
0.101806640625
0.10675048828125
0.1109619140625
0.10858154296875
0.10510253906249999
0.10693359374999999
0.10107421875
0.0889892578125
0.0897216796875
0.098876953125
0.100341796875
0.10052490234374999
0.10272216796875
0.1025390625
0.10510253906249999
0.1072998046875
0.10546875
0.09411621093749999
0.09246826171875
0.09869384765624999
0.0999755859375
0.09814453124999999
0.0970458984375
0.100341796875
0.11682128906250001
0.13421630859375003
0.14254760742187497
0.14044189453124997
0.1278076171875
0.1153564453125
0.0970458984375
0.09246826171875
0.0867919921875
0.05603027343749999
0.03900146484375
0.035888671875
0.02545166015625
0.01885986328125
0.0113525390625
0.0020141601562499996
-0.01007080078125
-0.01885986328125
-0.024169921874999997
-0.028015136718749997
-0.0377197265625
-0.044677734375
-0.05126953125
-0.0640869140625
-0.057861328125
-0.04431152343749999
-0.05822753906249999
-0.06811523437499999
-0.0449981689453125
-0.05419921875
-0.06866455078125
-0.06536865234375
-0.08935546875
-0.10546875
-0.10675048828125
-0.10638427734374999
-0.09906005859375
-0.0908203125
-0.084228515625
-0.09118652343749999
-0.0963134765625
-0.0897216796875
-0.085693359375
-0.08166503906249999
-0.0743408203125
-0.08642578125
-0.09045410156249999
-0.09906005859375
-0.10748291015625
-0.13238525390625
-0.14611816406249997
-0.129638671875
-0.11114501953125
-0.10235595703124999
-0.10052490234374999
-0.10272216796875
-0.10546875
-0.1072998046875
-0.113525390625
-0.10418701171874999
-0.0963134765625
-0.09777832031249999
-0.10107421875
-0.09539794921875
-0.0933837890625
-0.10089111328125
-0.1014404296875
-0.08935546875
-0.07269287109374999
-0.047607421875
-0.02618408203125
-0.012084960937499998
-0.010253906249999998
-0.0289306640625
-0.029113769531249997
-0.03204345703125
-0.05163574218749999
-0.06463623046875
-0.061889648437499986
-0.05328369140625
-0.05218505859375
-0.0626220703125
-0.0787353515625
-0.1153564453125
-0.11462402343749999
-0.11059570312499999
-0.09613037109375
-0.08349609374999999
-0.085693359375
-0.0882568359375
-0.08111572265625
-0.05712890625
-0.03881835937499999
-0.0325927734375
-0.04870605468749999
-0.06683349609375
-0.0626220703125
-0.06719970703125
-0.075439453125
-0.0677490234375
-0.04614257812499999
-0.037353515625
-0.05950927734375
-0.08111572265625
-0.08331298828125
-0.08074951171875
-0.08660888671874999
-0.08349609374999999
-0.09210205078125
-0.1025390625
-0.09521484375
-0.08129882812499999
-0.084228515625
-0.09484863281249999
-0.08935546875
-0.08349609374999999
-0.08624267578125
-0.07269287109374999
-0.0648193359375
-0.05712890625
-0.06280517578125
-0.0677490234375
-0.06610107421875
-0.0849609375
-0.09320068359375
-0.069580078125
-0.06060791015625
-0.06738281249999999
-0.06005859374999999
-0.0509033203125
-0.0472412109375
-0.06811523437499999
-0.08221435546874999
-0.0882568359375
-0.07598876953125
-0.05877685546875
-0.0615234375
-0.05859375
-0.06427001953125
-0.06976318359375
-0.07196044921874999
-0.07177734375
-0.06738281249999999
-0.05474853515624999
-0.05584716796875
-0.05218505859375
-0.03918457031249999
-0.02984619140625
-0.04248046875
-0.05529785156249999
-0.04962158203125
-0.03607177734375
-0.04522705078124999
-0.04833984374999999
-0.0604248046875
-0.0648193359375
-0.05859375
-0.0501708984375
-0.04742431640624999
-0.06756591796875
-0.0633544921875
-0.0428466796875
-0.0311279296875
-0.026916503906249997
-0.024536132812499997
-0.03204345703125
-0.03369140624999999
-0.04412841796875
-0.04046630859374999
-0.03973388671874999
-0.0421142578125
-0.06079101562499999
-0.0648193359375
-0.0545654296875
-0.0362548828125
-0.009887695312499998
-0.00054931640625
-0.0106201171875
-0.0113525390625
-0.0223388671875
-0.03076171875
-0.02947998046875
-0.0325927734375
-0.03314208984374999
-0.03186035156249999
-0.0179443359375
-0.011535644531249998
-0.009521484375
0.00439453125
-0.00439453125
-0.03424072265625
-0.044677734375
-0.0439453125
-0.04138183593749999
-0.04083251953124999
-0.028015136718749997
-0.016113281249999997
0.0018310546875
0.02490234375
0.0421142578125
0.0377197265625
0.013916015624999998
-0.006958007812499999
-0.0172119140625
-0.0091552734375
-0.011718749999999998
0.0
0.0032958984375
-0.01263427734375
-0.03204345703125
-0.04010009765624999
-0.0157470703125
0.00732421875
-0.01300048828125
-0.0380859375
-0.04083251953124999
-0.03131103515625
-0.02105712890625
-0.029113769531249997
-0.022155761718749997
-0.0135498046875
-0.018310546875
-0.012268066406249998
-0.00274658203125
0.00787353515625
0.019775390624999997
0.03240966796875
0.0439453125
0.0450439453125
0.0362548828125
0.0252685546875
0.010253906249999998
0.0
-0.003662109375
0.004211425781249999
0.004211425781249999
0.0025634765624999996
0.0087890625
0.020507812499999997
0.027832031249999997
0.02984619140625
0.017028808593749997
0.0172119140625
0.0355224609375
0.027099609375
0.011718749999999998
0.0007324218749999999
-0.01007080078125
-0.0087890625
0.012451171875
0.02984619140625
0.053924560546875
0.0860595703125
0.123046875
0.16387939453125
0.21478271484374997
0.298828125
0.38378906249999994
0.46655273437499994
0.5207519531249999
0.5619506835937499
0.618896484375
0.6591796875
0.67437744140625
0.6174316406249999
0.45849609374999994
0.264404296875
0.11499023437500001
0.0347900390625
-0.027832031249999997
-0.05566406249999999
-0.06005859374999999
-0.04815673828125
-0.029113769531249997
-0.023986816406249997
-0.0091552734375
0.002197265625
0.009704589843749998
0.023071289062499997
0.0311279296875
0.03314208984374999
0.04559326171874999
0.0325927734375
0.02252197265625
0.020507812499999997
0.024536132812499997
0.011718749999999998
0.00823974609375
0.020507812499999997
0.030029296874999997
0.02984619140625
0.035888671875
0.016845703124999997
0.008422851562499998
0.0252685546875
0.020507812499999997
0.010253906249999998
0.00732421875
0.014831542968750002
0.01666259765625
0.008056640624999998
0.0062255859375
0.01300048828125
0.01007080078125
0.00732421875
0.012451171875
0.0201416015625
0.03167724609375
0.03405761718749999
0.0384521484375
0.03698730468749999
0.0263671875
0.02471923828125
0.0311279296875
0.03277587890624999
0.03607177734375
0.037353515625
0.03314208984374999
0.01739501953125
0.02142333984375
0.028564453125
0.030395507812499997
0.023986816406249997
0.0263671875
0.03643798828125
0.03955078124999999
0.05218505859375
0.06079101562499999
0.0640869140625
0.0494384765625
0.04174804687499999
0.0457763671875
0.04541015625
0.04431152343749999
0.05383300781249999
0.06097412109374999
0.0604248046875
0.061889648437499986
0.06793212890625
0.08129882812499999
0.0926513671875
0.08276367187499999
0.07708740234375
0.0699462890625
0.05657958984374999
0.06793212890625
0.07598876953125
0.08148193359375
0.08624267578125
0.0889892578125
0.09045410156249999
0.09246826171875
0.09503173828125
0.087890625
0.0853271484375
0.09667968749999999
0.1043701171875
0.11187744140625
0.10327148437499999
0.09027099609374999
0.10418701171874999
0.1175537109375
0.120849609375
0.11663818359374999
0.11224365234375
0.1259765625
0.117919921875
0.10986328125
0.12176513671875
0.13476562499999997
0.14154052734374997
0.14025878906249997
0.139892578125
0.14208984375
0.13714599609375
0.13568115234375
0.141357421875
0.154541015625
0.16955566406249997
0.16625976562499997
0.164794921875
0.16204833984375
0.1585693359375
0.14593505859375
0.13531494140624997
0.13916015625
0.1494140625
0.147216796875
0.14886474609374997
0.15069580078125
0.14520263671874997
0.14392089843749997
0.1395263671875
0.125244140625
0.11499023437500001
0.11279296874999999
0.10766601562499999
0.09851074218749999
0.0823974609375
0.0648193359375
0.06243896484374999
0.0838623046875
0.08477783203124999
0.079833984375
0.07452392578124999
0.0615234375
0.02471923828125
0.00787353515625
0.006042480468749999
0.006591796875
0.0029296874999999996
0.0025634765624999996
-0.00036621093749999995
0.003662109375
0.00714111328125
0.00457763671875
-0.00018310546874999997
0.0113525390625
0.0289306640625
0.03717041015625
0.03662109375
0.03405761718749999
0.03076171875
0.03680419921875
0.0252685546875
0.01300048828125
0.016845703124999997
0.0113525390625
-0.00018310546874999997
0.011535644531249998
0.011718749999999998
0.006042480468749999
0.0020141601562499996
-0.004211425781249999
0.0
-0.003662109375
-0.00439453125
-0.0113525390625
-0.00897216796875
-0.005859374999999999
-0.005126953124999999
0.0047607421875
0.015930175781249997
0.015014648437499998
0.0201416015625
0.026733398437499997
0.03369140624999999
0.0355224609375
0.030029296874999997
0.0238037109375
0.0216064453125
0.0263671875
0.03698730468749999
0.04046630859374999
0.03424072265625
0.0325927734375
0.03826904296874999
0.04248046875
0.04522705078124999
0.04449462890625
0.0435791015625
0.03753662109375
0.03369140624999999
0.04229736328125
0.04833984374999999
0.04522705078124999
0.029663085937500003
0.0260009765625
0.03314208984374999
0.03826904296874999
0.03881835937499999
0.03240966796875
0.02362060546875
0.026733398437499997
0.0311279296875
0.0347900390625
0.04138183593749999
0.04595947265625
0.052734375
0.05346679687499999
0.05181884765625
0.05621337890624999
0.05712890625
0.0498046875
0.0439453125
0.03662109375
0.027648925781249997
0.0087890625
-0.005126953124999999
-0.012451171875
-0.006591796875
0.0087890625
0.0260009765625
0.03204345703125
0.03900146484375
0.03936767578125
0.03918457031249999
0.03515625
0.0333251953125
0.027648925781249997
0.02362060546875
0.026733398437499997
0.029296875
0.03607177734375
0.0472412109375
0.052734375
0.0596923828125
0.06317138671875
0.05529785156249999
0.05291748046875
0.05419921875
0.0648193359375
0.071044921875
0.0596923828125
0.05822753906249999
0.0589599609375
0.06005859374999999
0.06170654296874999
0.0684814453125
0.06646728515625
0.06207275390625001
0.04119873046875
0.0384521484375
0.04449462890625
0.0494384765625
0.0531005859375
0.05621337890624999
0.05181884765625
0.052001953125
0.05438232421874999
0.05584716796875
0.0648193359375
0.0732421875
0.07836914062499999
0.07836914062499999
0.07763671874999999
0.07580566406249999
0.07525634765624999
0.07818603515625
0.084228515625
0.0860595703125
0.07946777343749999
0.0853271484375
0.09173583984375
0.08587646484374999
0.08148193359375
0.09100341796874999
0.09228515624999999
0.08441162109375
0.08697509765625
0.09173583984375
0.09393310546875
0.09539794921875
0.09411621093749999
0.09210205078125
0.09777832031249999
0.09942626953124999
0.11022949218749999
0.11883544921874999
0.11590576171875
0.10711669921875
0.10546875
0.106201171875
0.10546875
0.10766601562499999
0.10418701171874999
0.09832763671875
0.099609375
0.09228515624999999
0.0963134765625
0.10198974609374999
0.10272216796875
0.1029052734375
0.09667968749999999
0.08880615234375
0.1007080078125
0.11059570312499999
0.10638427734374999
0.09686279296874999
0.09283447265625
0.09869384765624999
0.11334228515624999
0.12652587890625
0.1358642578125
0.13201904296875
0.12414550781250001
0.08917236328124999
0.08880615234375
0.1029052734375
0.109130859375
0.104736328125
0.1058349609375
0.11865234375000001
0.1322021484375
0.13659667968749997
0.14025878906249997
0.13385009765624997
0.12762451171874997
0.12268066406249999
0.1142578125
0.11041259765625
0.1142578125
0.11572265625
0.11297607421875
0.11279296874999999
0.10546875
0.07269287109374999
0.06701660156249999
0.07580566406249999
0.0970458984375
0.1171875
0.1318359375
0.1446533203125
0.14959716796875
0.15582275390625
0.1622314453125
0.169189453125
0.1787109375
0.1827392578125
0.17962646484374997
0.17010498046875
0.15527343749999997
0.150146484375
0.14300537109375
0.1318359375
0.11572265625
0.1007080078125
0.09594726562499999
0.09741210937499999
0.10198974609374999
0.11700439453124999
0.13494873046875
0.14392089843749997
0.14794921874999997
0.145751953125
0.1395263671875
0.13275146484375
0.128173828125
0.12451171875
0.122314453125
0.128173828125
0.138427734375
0.13330078125
0.12799072265625
0.11759948730468749
0.10308837890624999
0.09393310546875
0.087158203125
0.07470703125
0.08312988281249999
0.0992431640625
0.11920166015624999
0.12194824218749999
0.1204833984375
0.12176513671875
0.1322021484375
0.13476562499999997
0.11773681640625
0.11334228515624999
0.1343994140625
0.14172363281249997
0.11883544921874999
0.09374999999999999
0.07836914062499999
0.072509765625
0.0897216796875
0.12579345703125
0.1724853515625
0.2109375
0.2486572265625
0.28875732421875
0.34918212890624994
0.41967773437499994
0.48669433593749994
0.5463867187499999
0.5961914062499999
0.640869140625
0.67254638671875
0.6741943359375
0.654052734375
0.569091796875
0.390380859375
0.1981201171875
0.04101562499999999
-0.05566406249999999
-0.09613037109375
-0.08587646484374999
-0.052734375
-0.014099121093749998
0.00732421875
0.0029296874999999996
-0.015014648437499998
-0.004028320312499999
0.02288818359375
0.05145263671875
0.062255859375
0.061889648437499986
0.05566406249999999
0.04541015625
0.03881835937499999
0.052001953125
0.0736083984375
0.09246826171875
0.10235595703124999
0.10418701171874999
0.09374999999999999
0.08020019531249999
0.0692138671875
0.0633544921875
0.04962158203125
0.04870605468749999
0.05126953125
0.065185546875
0.094482421875
0.11846923828124999
0.1395263671875
0.14483642578125
0.1343994140625
0.119384765625
0.10382080078124999
0.07672119140625
0.06939697265625
0.07598876953125
0.07379150390624999
0.05877685546875
0.050537109375
0.03131103515625
0.025817871093749997
0.03350830078124999
0.03698730468749999
0.04302978515625
0.04339599609375
0.04046630859374999
0.0531005859375
0.0772705078125
0.085693359375
0.09429931640625
0.1007080078125
0.100341796875
0.1153564453125
0.113525390625
0.10675048828125
0.101806640625
0.10748291015625
0.11022949218749999
0.10546875
0.10418701171874999
0.10949707031249999
0.09741210937499999
0.0860595703125
0.08276367187499999
0.09558105468749999
0.109130859375
0.119384765625
0.11279296874999999
0.09045410156249999
0.08843994140624999
0.10107421875
0.11572265625
0.11279296874999999
0.10748291015625
0.099609375
0.09484863281249999
0.09027099609374999
0.09411621093749999
0.09906005859375
0.11389160156249999
0.13055419921875003
0.13604736328125
0.147216796875
0.15728759765625
0.15399169921874997
0.15252685546874997
0.14007568359375
0.13275146484375
0.13330078125
0.14849853515625
0.16442871093749997
0.15618896484374997
0.14794921874999997
0.16534423828124997
0.1710205078125
0.15069580078125
0.15124511718749997
0.17138671875
0.18896484375
0.18328857421874997
0.16809082031249997
0.172119140625
0.19317626953125
0.20343017578124997
0.2109375
0.20983886718749997
0.17926025390625
0.15216064453125
0.1468505859375
0.1376953125
0.14447021484375
0.16186523437499997
0.17340087890624997
0.18054199218749997
0.1636962890625
0.1494140625
0.15032958984374997
0.1541748046875
0.15948486328124997
0.15527343749999997
0.15142822265625
0.1541748046875
0.15582275390625
0.147216796875
0.13476562499999997
0.11022949218749999
0.1058349609375
0.10107421875
0.09796142578125
0.0838623046875
0.06372070312499999
0.06628417968749999
0.07965087890625
0.06939697265625
0.050537109375
0.0498046875
0.0509033203125
0.0172119140625
-0.00677490234375
-0.023986816406249997
-0.029663085937500003
-0.044677734375
-0.0362548828125
-0.02947998046875
-0.040283203125
-0.04174804687499999
-0.023071289062499997
-0.01995849609375
-0.03369140624999999
-0.05035400390625
-0.0501708984375
-0.023071289062499997
0.0029296874999999996
0.016845703124999997
0.011718749999999998
-0.004028320312499999
-0.009521484375
0.00384521484375
0.0142822265625
0.017578125
0.02197265625
0.0164794921875
0.0146484375
0.025817871093749997
0.02728271484375
0.0010986328125
-0.01556396484375
-0.011718749999999998
-0.00054931640625
0.0
-0.01666259765625
-0.026916503906249997
-0.02105712890625
0.0062255859375
0.02490234375
0.01776123046875
0.00823974609375
0.0029296874999999996
0.008422851562499998
0.006958007812499999
0.0062255859375
0.00732421875
0.00897216796875
0.015380859375
0.01190185546875
-0.012451171875
-0.02105712890625
-0.011718749999999998
-0.00036621093749999995
0.020324707031249997
0.052734375
0.0743408203125
0.08166503906249999
0.07708740234375
0.0692138671875
0.05822753906249999
0.062255859375
0.05383300781249999
0.03790283203124999
0.0347900390625
0.04064941406249999
0.04907226562499999
0.0498046875
0.00897216796875
-0.03057861328125
-0.0311279296875
-0.01116943359375
-0.0020141601562499996
-0.01995849609375
-0.00457763671875
0.019775390624999997
0.030029296874999997
0.052734375
0.0849609375
0.101806640625
0.11480712890625
0.09521484375
0.0567626953125
0.020874023437499997
0.026733398437499997
0.04486083984375
0.01922607421875
-0.008422851562499998
-0.031494140625
-0.0377197265625
-0.030944824218749993
-0.006958007812499999
0.023071289062499997
0.06884765625
0.06134033203124999
-0.01190185546875
-0.0377197265625
-0.0172119140625
0.013916015624999998
0.03497314453125
0.03515625
0.04705810546874999
0.04138183593749999
0.050537109375
0.0615234375
0.06866455078125
0.0706787109375
0.057861328125
0.04833984374999999
0.03277587890624999
0.026916503906249997
0.028198242187499997
0.03131103515625
0.028015136718749997
0.028015136718749997
0.03863525390625
0.04595947265625
0.05621337890624999
0.06536865234375
0.07562255859374999
0.07745361328125
0.0699462890625
0.0509033203125
0.04815673828125
0.04174804687499999
0.035888671875
0.029296875
0.019592285156249997
0.0362548828125
0.04870605468749999
0.07415771484375
0.09521484375
0.09759521484375
0.08953857421874999
0.09521484375
0.09521484375
0.09118652343749999
0.07818603515625
0.06683349609375
0.06079101562499999
0.07012939453124999
0.08148193359375
0.0648193359375
0.04779052734374999
0.02984619140625
0.0142822265625
0.009704589843749998
0.03515625
0.06610107421875
0.09356689453125
0.10638427734374999
0.090087890625
0.0908203125
0.091552734375
0.0703125
0.07672119140625
0.08935546875
0.08935546875
0.0908203125
0.10675048828125
0.10693359374999999
0.11462402343749999
0.11279296874999999
0.10308837890624999
0.1072998046875
0.11022949218749999
0.11059570312499999
0.0963134765625
0.08807373046875
0.085693359375
0.07818603515625
0.061889648437499986
0.031494140625
0.024353027343749997
0.024353027343749997
0.06701660156249999
0.1204833984375
0.11370849609374999
0.099609375
0.08441162109375
0.06243896484374999
0.05474853515624999
0.09301757812499999
0.1278076171875
0.10491943359374999
0.094482421875
0.09411621093749999
0.0889892578125
0.10327148437499999
0.09814453124999999
0.08038330078124999
0.08990478515624999
0.09594726562499999
0.1007080078125
0.10418701171874999
0.10949707031249999
0.1080322265625
0.10455322265624999
0.1025390625
0.106201171875
0.1142578125
0.1029052734375
0.07763671874999999
0.072509765625
0.09027099609374999
0.10931396484375
0.10327148437499999
0.08734130859374999
0.0706787109375
0.05932617187500001
0.05639648437499999
0.04925537109374999
0.04486083984375
0.05731201171874999
0.0648193359375
0.054931640625
0.05657958984374999
0.04962158203125
0.0421142578125
0.024353027343749997
0.03186035156249999
0.04101562499999999
0.04815673828125
0.05255126953124999
0.0347900390625
0.015930175781249997
0.00640869140625
0.007507324218749999
0.015380859375
0.015014648437499998
0.00933837890625
-0.00018310546874999997
0.005859374999999999
0.012084960937499998
0.027099609375
0.028015136718749997
0.00054931640625
-0.01629638671875
-0.01446533203125
-0.01629638671875
-0.0010986328125
0.0347900390625
0.0999755859375
0.16168212890624997
0.20983886718749997
0.26312255859375
0.3369140625
0.4215087890625
0.5445556640624999
0.673828125
0.7382812499999999
0.7547607421874999
0.740478515625
0.715576171875
0.67767333984375
0.53155517578125
0.32354736328124994
0.11004638671875
-0.04138183593749999
-0.1351318359375
-0.1600341796875
-0.12011718749999999
-0.07836914062499999
-0.06372070312499999
-0.05822753906249999
-0.0611572265625
-0.04925537109374999
-0.022705078125
-0.0128173828125
-0.00823974609375
-0.008056640624999998
-0.03076171875
-0.05566406249999999
-0.08020019531249999
-0.1160888671875
-0.1204833984375
-0.1153564453125
-0.1065673828125
-0.10162353515625
-0.10601806640624999
-0.10455322265624999
-0.09320068359375
-0.08404541015624999
-0.08020019531249999
-0.08312988281249999
-0.0849609375
-0.08276367187499999
-0.07525634765624999
-0.073516845703125
-0.0604248046875
-0.0362548828125
-0.027099609375
-0.0260009765625
-0.03186035156249999
-0.04486083984375
-0.05145263671875
-0.0498046875
-0.0439453125
-0.037353515625
-0.026733398437499997
-0.008056640624999998
-0.009887695312499998
-0.0179443359375
-0.017028808593749997
-0.0087890625
0.02178955078125
0.0384521484375
0.008056640624999998
-0.0007324218749999999
0.005859374999999999
0.009704589843749998
0.0146484375
0.028015136718749997
0.028564453125
0.0223388671875
0.023254394531249997
0.029663085937500003
0.028198242187499997
0.02618408203125
0.028564453125
0.0216064453125
0.0260009765625
0.010437011718749998
-0.00897216796875
-0.0252685546875
-0.0223388671875
-0.01318359375
0.0012817382812499998
0.0106201171875
0.01116943359375
0.00439453125
0.01995849609375
0.04669189453125
0.07580566406249999
0.07525634765624999
0.06060791015625
0.0523681640625
0.04376220703125
0.028747558593750003
0.023071289062499997
0.02178955078125
0.030395507812499997
0.0260009765625
0.03405761718749999
0.03698730468749999
0.03021240234375
0.03881835937499999
0.0457763671875
0.05657958984374999
0.06701660156249999
0.072509765625
0.07379150390624999
0.07379150390624999
0.07910156249999999
0.0860595703125
0.09869384765624999
0.10052490234374999
0.0999755859375
0.11444091796875
0.11022949218749999
0.11114501953125
0.10766601562499999
0.11041259765625
0.113525390625
0.1043701171875
0.08862304687499999
0.09521484375
0.11370849609374999
0.1190185546875
0.11846923828124999
0.13037109375
0.1307373046875
0.1322021484375
0.1336669921875
0.1376953125
0.12213134765625
0.0860595703125
0.08111572265625
0.09100341796874999
0.10327148437499999
0.12158203124999999
0.12579345703125
0.1080322265625
0.07489013671874999
0.0677490234375
0.06134033203124999
0.06079101562499999
0.06024169921875
0.019409179687499997
0.010986328125
0.024353027343749997
0.0355224609375
0.017578125
-0.01922607421875
-0.03533935546875
-0.04833984374999999
-0.04907226562499999
-0.062255859375
-0.07452392578124999
-0.090087890625
-0.1021728515625
-0.1204833984375
-0.11975097656249999
-0.12176513671875
-0.13238525390625
-0.13256835937499997
-0.1409912109375
-0.13110351562499997
-0.106201171875
-0.09741210937499999
-0.09429931640625
-0.0787353515625
-0.10089111328125
-0.11315917968749999
-0.10894775390625
-0.10876464843749999
-0.1343994140625
-0.14611816406249997
-0.1376953125
-0.12451171875
-0.13275146484375
-0.1080322265625
-0.07910156249999999
-0.0736083984375
-0.05749511718750001
-0.04797363281249999
-0.05181884765625
-0.05749511718750001
-0.05108642578125
-0.05419921875
-0.05548095703125
-0.05987548828124999
-0.05364990234375
-0.0435791015625
-0.03900146484375
-0.05584716796875
-0.062255859375
-0.04650878906249999
-0.0501708984375
-0.0567626953125
-0.05749511718750001
-0.07397460937499999
-0.07379150390624999
-0.06500244140625
-0.0626220703125
-0.0640869140625
-0.06701660156249999
-0.08093261718749999
-0.10015869140625
-0.08367919921875
-0.04650878906249999
-0.035888671875
-0.01318359375
-0.004211425781249999
-0.016113281249999997
-0.0435791015625
-0.04248046875
-0.018310546875
-0.0076904296875
-0.01885986328125
-0.03222656249999999
-0.03369140624999999
-0.04156494140624999
-0.0347900390625
-0.05291748046875
-0.06628417968749999
-0.06903076171875
-0.06097412109374999
-0.05346679687499999
-0.028747558593750003
-0.020690917968749997
-0.028015136718749997
-0.023986816406249997
-0.03369140624999999
-0.03021240234375
-0.012084960937499998
-0.00054931640625
-0.00018310546874999997
-0.0157470703125
-0.02252197265625
-0.043212890625
-0.04650878906249999
-0.02618408203125
-0.04193115234375
-0.05914306640624999
-0.035888671875
-0.01739501953125
-0.0216064453125
-0.0252685546875
-0.0091552734375
0.02197265625
0.028198242187499997
0.012084960937499998
0.0025634765624999996
-0.00714111328125
-0.01080322265625
0.01446533203125
0.0362548828125
0.03698730468749999
0.016845703124999997
-0.01263427734375
-0.02490234375
-0.04650878906249999
-0.04174804687499999
-0.03222656249999999
-0.03405761718749999
-0.04376220703125
-0.0626220703125
-0.06738281249999999
-0.04156494140624999
-0.0238037109375
-0.01629638671875
-0.005859374999999999
-0.019592285156249997
-0.015380859375
-0.0062255859375
-0.0062255859375
-0.00567626953125
-0.0018310546875
-0.0047607421875
-0.0128173828125
-0.015014648437499998
-0.030395507812499997
-0.04797363281249999
-0.0450439453125
-0.04248046875
-0.030029296874999997
-0.0260009765625
-0.017578125
0.0010986328125
0.02197265625
0.0421142578125
0.029663085937500003
0.018310546875
0.02471923828125
0.022705078125
0.00384521484375
-0.012268066406249998
-0.03698730468749999
-0.04174804687499999
-0.029663085937500003
-0.04083251953124999
-0.06005859374999999
-0.05126953125
-0.03369140624999999
-0.018310546875
-0.00714111328125
-0.0025634765624999996
0.017028808593749997
0.023986816406249997
0.024353027343749997
0.017578125
-0.0018310546875
-0.012451171875
-0.0014648437499999998
0.0012817382812499998
-0.01080322265625
-0.0076904296875
-0.0025634765624999996
0.0146484375
0.04083251953124999
0.04779052734374999
0.04431152343749999
0.0128173828125
-0.018310546875
-0.0201416015625
-0.015380859375
-0.019409179687499997
-0.03314208984374999
-0.04541015625
-0.0201416015625
0.015930175781249997
0.030395507812499997
0.02362060546875
0.019409179687499997
0.01776123046875
0.015380859375
-0.00018310546874999997
0.00036621093749999995
0.01190185546875
0.018493652343749997
0.0252685546875
0.04156494140624999
0.0596923828125
0.0736083984375
0.07598876953125
0.0838623046875
0.10418701171874999
0.1175537109375
0.10693359374999999
0.08367919921875
0.0736083984375
0.06738281249999999
0.05712890625
0.0421142578125
0.017578125
-0.00238037109375
-0.0106201171875
-0.0106201171875
0.0029296874999999996
0.01300048828125
0.0274658203125
0.03167724609375
0.020507812499999997
0.010986328125
0.005126953124999999
0.004211425781249999
-0.0047607421875
-0.01318359375
-0.02984619140625
-0.02838134765625
-0.003662109375
0.03515625
0.026733398437499997
0.01263427734375
0.00732421875
0.0106201171875
0.009887695312499998
0.017578125
0.03222656249999999
0.03167724609375
0.0076904296875
0.0025634765624999996
0.00384521484375
0.00311279296875
0.00164794921875
-0.0020141601562499996
0.005859374999999999
0.00439453125
-0.0087890625
-0.028747558593750003
-0.04138183593749999
-0.028747558593750003
0.010986328125
0.0355224609375
0.05712890625
0.07818603515625
0.12103271484374997
0.17468261718749997
0.24682617187499997
0.33343505859374994
0.4189453125
0.46453857421875006
0.5130615234375
0.56158447265625
0.563232421875
0.5302734374999999
0.42425537109375
0.2318115234375
0.05108642578125
-0.06628417968749999
-0.14611816406249997
-0.17175292968749997
-0.18310546875
-0.1904296875
-0.1688232421875
-0.14923095703125
-0.12652587890625
-0.08807373046875
-0.06976318359375
-0.0509033203125
-0.04339599609375
-0.050537109375
-0.0501708984375
-0.0450439453125
-0.05181884765625
-0.05163574218749999
-0.03643798828125
-0.03222656249999999
-0.0439453125
-0.05126953125
-0.04614257812499999
-0.0384521484375
-0.0523681640625
-0.05364990234375
-0.04779052734374999
-0.04907226562499999
-0.04376220703125
-0.03533935546875
-0.03131103515625
-0.03405761718749999
-0.0439453125
-0.0509033203125
-0.03240966796875
-0.02984619140625
-0.03387451171875
-0.02984619140625
-0.03405761718749999
-0.04833984374999999
-0.037353515625
-0.024536132812499997
-0.028564453125
-0.031494140625
-0.0347900390625
-0.05218505859375
-0.0399169921875
-0.025817871093749997
-0.022705078125
-0.0399169921875
-0.050537109375
-0.0380859375
-0.0164794921875
-0.009521484375
-0.024536132812499997
-0.03405761718749999
-0.04064941406249999
-0.03057861328125
-0.02197265625
-0.0076904296875
0.009887695312499998
0.0399169921875
0.05877685546875
0.05859375
0.06738281249999999
0.03900146484375
0.010253906249999998
-0.004028320312499999
-0.012268066406249998
-0.0029296874999999996
0.0179443359375
0.0377197265625
0.043212890625
0.0472412109375
0.0531005859375
0.052001953125
0.05639648437499999
0.05950927734375
0.0501708984375
0.04449462890625
0.030944824218749993
0.014831542968750002
0.0640869140625
0.09301757812499999
0.07342529296875
0.04541015625
0.0380859375
0.04595947265625
0.04797363281249999
0.0604248046875
0.0853271484375
0.09667968749999999
0.11682128906250001
0.12890624999999997
0.11846923828124999
0.10858154296875
0.08203124999999999
0.07708740234375
0.07397460937499999
0.08001708984375
0.084228515625
0.08477783203124999
0.09613037109375
0.09869384765624999
0.1065673828125
0.11737060546874999
0.11132812499999999
0.11663818359374999
0.11151123046874999
0.09558105468749999
0.10308837890624999
0.10766601562499999
0.0999755859375
0.09667968749999999
0.10107421875
0.10345458984375
0.12011718749999999
0.14630126953125
0.15161132812499997
0.15234375
0.1395263671875
0.1322021484375
0.12872314453125
0.12322998046875001
0.11242675781249999
0.101806640625
0.10327148437499999
0.09777832031249999
0.079833984375
0.0611572265625
0.0494384765625
0.0439453125
0.03698730468749999
0.028198242187499997
0.0029296874999999996
-0.029113769531249997
-0.04650878906249999
-0.05566406249999999
-0.05639648437499999
-0.05163574218749999
-0.05163574218749999
-0.05712890625
-0.05548095703125
-0.04339599609375
-0.04431152343749999
-0.0509033203125
-0.06555175781249999
-0.085693359375
-0.09246826171875
-0.08734130859374999
-0.08203124999999999
-0.0897216796875
-0.09832763671875
-0.09686279296874999
-0.0875244140625
-0.0867919921875
-0.0845947265625
-0.0908203125
-0.09173583984375
-0.0933837890625
-0.10455322265624999
-0.11737060546874999
-0.11370849609374999
-0.1043701171875
-0.09411621093749999
-0.07928466796875
-0.0732421875
-0.062255859375
-0.07232666015625
-0.0845947265625
-0.08294677734375
-0.08258056640625
-0.08074951171875
-0.07562255859374999
-0.0732421875
-0.07415771484375
-0.06884765625
-0.05712890625
-0.04248046875
-0.05072021484375
-0.05621337890624999
-0.05877685546875
-0.0567626953125
-0.06298828125
-0.05383300781249999
-0.05639648437499999
-0.07891845703125
-0.0849609375
-0.076171875
-0.0640869140625
-0.06298828125
-0.06903076171875
-0.0615234375
-0.05401611328125
-0.050537109375
-0.047607421875
-0.05438232421874999
-0.0589599609375
-0.06005859374999999
-0.05859375
-0.0567626953125
-0.05749511718750001
-0.04687499999999999
-0.027648925781249997
-0.01776123046875
-0.0091552734375
-0.015014648437499998
-0.026916503906249997
-0.029296875
-0.03350830078124999
-0.04852294921875
-0.06701660156249999
-0.08276367187499999
-0.0743408203125
-0.06298828125
-0.04559326171874999
-0.044677734375
-0.0439453125
-0.0384521484375
-0.0325927734375
-0.035888671875
-0.03918457031249999
-0.0362548828125
-0.04101562499999999
-0.04229736328125
-0.03881835937499999
-0.04156494140624999
-0.03973388671874999
-0.034423828125
-0.047607421875
-0.05511474609374999
-0.05126953125
-0.043212890625
-0.04174804687499999
-0.03863525390625
-0.04101562499999999
-0.05584716796875
-0.062255859375
-0.0615234375
-0.05218505859375
-0.04119873046875
-0.03936767578125
-0.04687499999999999
-0.05383300781249999
-0.0589599609375
-0.05218505859375
-0.043212890625
-0.04248046875
-0.0384521484375
-0.02728271484375
-0.00714111328125
0.0091552734375
0.00677490234375
0.004943847656249999
0.008056640624999998
-0.004943847656249999
-0.009521484375
-0.018310546875
-0.04248046875
-0.05291748046875
-0.05383300781249999
-0.052734375
-0.05291748046875
-0.04870605468749999
-0.0706787109375
-0.07415771484375
-0.0750732421875
-0.07708740234375
-0.075439453125
-0.07598876953125
-0.072509765625
-0.06353759765625
-0.06445312499999999
-0.0615234375
-0.05364990234375
-0.04302978515625
-0.03314208984374999
-0.0252685546875
-0.018310546875
-0.011535644531249998
-0.00714111328125
-0.002197265625
0.0054931640625
0.00311279296875
-0.004211425781249999
-0.00567626953125
-0.005859374999999999
-0.0091552734375
-0.010986328125
-0.00897216796875
-0.015014648437499998
-0.0012817382812499998
0.00384521484375
-0.00457763671875
-0.01318359375
-0.019409179687499997
-0.01904296875
-0.00018310546874999997
0.01904296875
0.0047607421875
-0.012268066406249998
-0.003662109375
0.00439453125
0.009521484375
0.014831542968750002
0.018493652343749997
0.0091552734375
-0.02197265625
-0.04559326171874999
-0.03662109375
-0.019409179687499997
-0.00732421875
-0.0179443359375
-0.03698730468749999
-0.0380859375
-0.010986328125
0.00091552734375
-0.0025634765624999996
0.00311279296875
0.01007080078125
0.00439453125
-0.00531005859375
-0.006591796875
-0.012451171875
-0.012451171875
0.00439453125
0.00787353515625
0.0091552734375
0.013916015624999998
0.026916503906249997
0.027099609375
0.0135498046875
0.0012817382812499998
-0.005126953124999999
-0.00567626953125
-0.006958007812499999
-0.0032958984375
0.004943847656249999
0.012451171875
0.00567626953125
0.0025634765624999996
0.010253906249999998
0.013916015624999998
0.01116943359375
0.01080322265625
0.0106201171875
0.02197265625
0.027832031249999997
0.02490234375
0.027099609375
0.03222656249999999
0.0238037109375
0.0260009765625
0.03680419921875
0.03369140624999999
0.028747558593750003
0.006042480468749999
-0.0146484375
-0.013366699218749998
0.012451171875
0.018493652343749997
0.0172576904296875
0.027832031249999997
0.04064941406249999
0.018310546875
-0.00036621093749999995
0.0010986328125
0.0135498046875
0.02838134765625
0.0142822265625
0.010986328125
0.024536132812499997
0.03222656249999999
0.0223388671875
0.02362060546875
0.028015136718749997
0.0325927734375
0.03662109375
0.03314208984374999
0.02508544921875
0.031494140625
0.04248046875
0.04815673828125
0.0421142578125
0.0347900390625
0.03076171875
0.027099609375
0.019775390624999997
0.00164794921875
-0.0020141601562499996
0.0012817382812499998
0.009887695312499998
0.015930175781249997
0.017028808593749997
0.01556396484375
0.022155761718749997
0.03057861328125
0.0252685546875
0.02105712890625
0.02471923828125
0.018310546875
0.01263427734375
0.0088348388671875
0.0106201171875
0.0128173828125
0.0146484375
0.0142822265625
0.0172119140625
0.0252685546875
0.02728271484375
0.023437499999999997
0.02252197265625
0.026916503906249997
0.018310546875
0.01922607421875
0.0260009765625
0.028198242187499997
0.023986816406249997
0.02618408203125
0.0274658203125
0.0263671875
0.02490234375
0.03717041015625
0.06005859374999999
0.08880615234375
0.0999755859375
0.08990478515624999
0.075439453125
0.06243896484374999
0.0523681640625
0.06079101562499999
0.0633544921875
0.0640869140625
0.06005859374999999
0.052734375
0.04742431640624999
0.04687499999999999
0.05877685546875
0.05932617187500001
0.05328369140625
0.07232666015625
0.07598876953125
0.0648193359375
0.04687499999999999
0.03497314453125
0.0263671875
0.011718749999999998
-0.005126953124999999
-0.020507812499999997
-0.0274658203125
-0.0179443359375
0.00439453125
0.01629638671875
0.012084960937499998
0.009887695312499998
0.0216064453125
0.024353027343749997
0.029113769531249997
0.018310546875
0.004943847656249999
0.018310546875
0.04266357421875
0.04193115234375
0.03863525390625
0.03460693359375
0.030395507812499997
0.03826904296874999
0.03753662109375
0.02984619140625
0.0223388671875
0.0062255859375
0.0025634765624999996
-0.014831542968750002
-0.03167724609375
-0.03387451171875
-0.02728271484375
0.00036621093749999995
0.0439453125
0.09210205078125
0.147216796875
0.199951171875
0.2589111328125
0.33599853515625
0.39825439453125
0.462890625
0.52825927734375
0.583740234375
0.6123046874999999
0.59967041015625
0.58062744140625
0.5072021484375
0.32757568359375
0.1058349609375
-0.062255859375
-0.11846923828124999
-0.15875244140625
-0.16058349609375
-0.12469482421874999
-0.08093261718749999
-0.08990478515624999
-0.07745361328125
-0.04248046875
-0.04650878906249999
-0.0677490234375
-0.06738281249999999
-0.05603027343749999
-0.04339599609375
-0.01446533203125
0.0146484375
-0.00732421875
-0.0238037109375
-0.0238037109375
-0.03350830078124999
-0.03698730468749999
-0.0216064453125
-0.00860595703125
-0.00567626953125
-0.015014648437499998
-0.0260009765625
-0.035888671875
-0.052001953125
-0.0633544921875
-0.069580078125
-0.06811523437499999
-0.06372070312499999
-0.06005859374999999
-0.05804443359375
-0.0501708984375
-0.04101562499999999
-0.033233642578125
-0.03186035156249999
-0.0311279296875
-0.0223388671875
-0.00732421875
-0.0007324218749999999
0.0029296874999999996
0.01373291015625
0.00823974609375
-0.02197265625
