-0.061889648437499986
-0.06005859374999999
-0.0604248046875
-0.061889648437499986
-0.0589599609375
-0.05712890625
-0.05383300781249999
-0.0531005859375
-0.05181884765625
-0.04962158203125
-0.04815673828125
-0.04797363281249999
-0.0472412109375
-0.04559326171874999
-0.0435791015625
-0.04248046875
-0.04064941406249999
-0.04083251953124999
-0.040283203125
-0.03936767578125
-0.0377197265625
-0.0362548828125
-0.03460693359375
-0.0347900390625
-0.03570556640625
-0.03936767578125
-0.03936767578125
-0.03570556640625
-0.03076171875
-0.03167724609375
-0.03460693359375
-0.0347900390625
-0.034423828125
-0.03186035156249999
-0.03369140624999999
-0.034423828125
-0.037353515625
-0.03717041015625
-0.0333251953125
-0.03222656249999999
-0.0289306640625
-0.026916503906249997
-0.020690917968749997
-0.01995849609375
-0.021240234375
-0.019409179687499997
-0.015930175781249997
-0.0164794921875
-0.0164794921875
-0.019409179687499997
-0.0179443359375
-0.01300048828125
-0.015014648437499998
-0.0172119140625
-0.015930175781249997
-0.0157470703125
-0.01739501953125
-0.018310546875
-0.01904296875
-0.019409179687499997
-0.021240234375
-0.02178955078125
-0.018493652343749997
-0.0164794921875
-0.01739501953125
-0.014099121093749998
-0.01373291015625
-0.01190185546875
-0.01116943359375
-0.010253906249999998
-0.00787353515625
-0.00714111328125
-0.007507324218749999
-0.006042480468749999
-0.004943847656249999
-0.0025634765624999996
0.00018310546874999997
0.0010986328125
0.0007324218749999999
-0.00036621093749999995
-0.0025634765624999996
-0.0025634765624999996
-0.003662109375
-0.0032958984375
-0.0032958984375
-0.004028320312499999
-0.004028320312499999
-0.00732421875
-0.0135498046875
-0.01922607421875
-0.0172119140625
-0.0128173828125
-0.0091552734375
-0.00384521484375
0.00036621093749999995
0.005126953124999999
0.0113525390625
0.0164794921875
0.0172119140625
0.015014648437499998
0.01739501953125
0.02197265625
0.023071289062499997
0.024169921874999997
0.0263671875
0.03350830078124999
0.03662109375
0.03936767578125
0.04229736328125
0.04193115234375
0.0421142578125
0.04010009765624999
0.03497314453125
0.029296875
0.029113769531249997
0.02471923828125
0.022705078125
0.0186767578125
0.01263427734375
0.00860595703125
0.004211425781249999
0.00018310546874999997
-0.004211425781249999
-0.00640869140625
-0.00311279296875
-0.0018310546875
-0.004211425781249999
-0.004028320312499999
-0.00567626953125
-0.0087890625
-0.0106201171875
-0.009521484375
-0.01007080078125
-0.011535644531249998
-0.01318359375
-0.012451171875
-0.012451171875
-0.01373291015625
-0.01318359375
-0.013366699218749998
-0.012451171875
-0.01263427734375
-0.00897216796875
-0.00457763671875
-0.00439453125
-0.004028320312499999
-0.006958007812499999
-0.006591796875
-0.008056640624999998
-0.0054931640625
-0.00640869140625
-0.0047607421875
-0.0054931640625
-0.0054931640625
-0.004211425781249999
-0.00384521484375
-0.0029296874999999996
0.004028320312499999
0.010253906249999998
0.017578125
0.0384521484375
0.06939697265625
0.11682128906250001
0.1864013671875
0.2666015625
0.366943359375
0.5006103515624999
0.642333984375
0.7725219726562499
0.8681030273437499
0.930908203125
0.9774169921875
0.9878540039062499
0.9067382812499999
0.721435546875
0.4310302734375
0.08221435546874999
-0.20745849609374997
-0.347900390625
-0.43011474609375
-0.48046874999999994
-0.506103515625
-0.49914550781249994
-0.4742431640625
-0.438629150390625
-0.39532470703124994
-0.3424072265625
-0.2845458984375
-0.22558593749999997
-0.16717529296875
-0.113525390625
-0.07653808593749999
-0.052734375
-0.0439453125
-0.043212890625
-0.04156494140624999
-0.04101562499999999
-0.0435791015625
-0.04376220703125
-0.04248046875
-0.03753662109375
-0.0333251953125
-0.029296875
-0.027648925781249997
-0.02728271484375
-0.02618408203125
-0.021240234375
-0.014831542968750002
-0.008422851562499998
-0.00384521484375
-0.00164794921875
0.0032958984375
0.00311279296875
0.0029296874999999996
0.0007324218749999999
0.003662109375
0.0076904296875
0.01300048828125
0.01776123046875
0.0164794921875
0.017578125
0.01776123046875
0.0216064453125
0.0216064453125
0.020874023437499997
0.0223388671875
0.027099609375
0.029663085937500003
0.031494140625
0.0355224609375
0.03881835937499999
0.0380859375
0.0384521484375
0.04138183593749999
0.04156494140624999
0.04302978515625
0.04687499999999999
0.05163574218749999
0.0531005859375
0.057861328125
0.0611572265625
0.06353759765625
0.0677490234375
0.0714111328125
0.07397460937499999
0.07580566406249999
0.0772705078125
0.07891845703125
0.079833984375
0.08056640625
0.08880615234375
0.0970458984375
0.099609375
0.09906005859375
0.1021728515625
0.1033172607421875
0.10748291015625
0.10876464843749999
0.109130859375
0.11151123046874999
0.11627197265625
0.11993408203125
0.12268066406249999
0.12615966796874997
0.1329345703125
0.1373291015625
0.1431884765625
0.14630126953125
0.14758300781249997
0.15179443359374997
0.15527343749999997
0.1585693359375
0.1629638671875
0.16497802734375
0.1724853515625
0.17541503906249997
0.18182373046874997
0.18749999999999997
0.18951416015625
0.19189453124999997
0.19775390625
0.20086669921875
0.20159912109375
0.20397949218749997
0.20983886718749997
0.2164306640625
0.21697998046875
0.21624755859374997
0.2135009765625
0.21038818359374997
0.207275390625
0.20599365234375
0.20306396484375
0.1995849609375
0.19702148437499997
0.1915283203125
0.1842041015625
0.17449951171874997
0.17047119140624997
0.1622314453125
0.1527099609375
0.138427734375
0.12341308593749999
0.10986328125
0.09576416015625
0.08056640625
0.06445312499999999
0.0472412109375
0.03076171875
0.0179443359375
0.005859374999999999
-0.00714111328125
-0.020324707031249997
-0.03350830078124999
-0.04486083984375
-0.05346679687499999
-0.06243896484374999
-0.07049560546875
-0.0787353515625
-0.087432861328125
-0.09429931640625
-0.1014404296875
-0.109130859375
-0.11572265625
-0.12139892578125
-0.12414550781250001
-0.125244140625
-0.13256835937499997
-0.13604736328125
-0.1376953125
-0.1387939453125
-0.1409912109375
-0.13714599609375
-0.138427734375
-0.14007568359375
-0.139892578125
-0.14447021484375
-0.1468505859375
-0.147216796875
-0.14611816406249997
-0.14172363281249997
-0.14392089843749997
-0.14208984375
-0.14044189453124997
-0.138427734375
-0.1343994140625
-0.13348388671875
-0.13165283203125
-0.1307373046875
-0.12487792968749999
-0.1190185546875
-0.1153564453125
-0.10986328125
-0.10675048828125
-0.10784912109375
-0.10784912109375
-0.10675048828125
-0.1021728515625
-0.10125732421874999
-0.09594726562499999
-0.09320068359375
-0.0897216796875
-0.085693359375
-0.0867919921875
-0.0838623046875
-0.0838623046875
-0.084228515625
-0.0849609375
-0.08166503906249999
-0.07928466796875
-0.07763671874999999
-0.07598876953125
-0.07452392578124999
-0.07269287109374999
-0.07177734375
-0.07342529296875
-0.07177734375
-0.066650390625
-0.06500244140625
-0.0648193359375
-0.06610107421875
-0.06756591796875
-0.0684814453125
-0.06793212890625
-0.066650390625
-0.06390380859375
-0.06463623046875
-0.06353759765625
-0.06372070312499999
-0.05731201171874999
-0.0567626953125
-0.05657958984374999
-0.057861328125
-0.05657958984374999
-0.05603027343749999
-0.05383300781249999
-0.05694580078124999
-0.05621337890624999
-0.05731201171874999
-0.05932617187500001
-0.05932617187500001
-0.06097412109374999
-0.05932617187500001
-0.06060791015625
-0.06243896484374999
-0.06298828125
-0.06427001953125
-0.06372070312499999
-0.06060791015625
-0.05987548828124999
-0.05438232421874999
-0.0494384765625
-0.04888916015624999
-0.04595947265625
-0.0472412109375
-0.04852294921875
-0.04797363281249999
-0.0509033203125
-0.04907226562499999
-0.04229736328125
-0.04248046875
-0.0450439453125
-0.04541015625
-0.04376220703125
-0.0428466796875
-0.03973388671874999
-0.03826904296874999
-0.0347900390625
-0.03167724609375
-0.03021240234375
-0.027832031249999997
-0.023437499999999997
-0.0186767578125
-0.019409179687499997
-0.019775390624999997
-0.01629638671875
-0.0146484375
-0.0128173828125
-0.009521484375
-0.0113525390625
-0.012084960937499998
-0.0142822265625
-0.0135498046875
-0.01300048828125
-0.014831542968750002
-0.0128173828125
-0.011535644531249998
-0.010437011718749998
-0.010253906249999998
-0.010437011718749998
-0.00640869140625
-0.00677490234375
-0.006591796875
-0.0054931640625
-0.008056640624999998
-0.0106201171875
-0.0135498046875
-0.01556396484375
-0.01885986328125
-0.019409179687499997
-0.015380859375
-0.01629638671875
-0.01300048828125
-0.009887695312499998
-0.00897216796875
-0.011718749999999998
-0.0146484375
-0.0157470703125
-0.01904296875
-0.022155761718749997
-0.024169921874999997
-0.02655029296875
-0.025817871093749997
-0.0216064453125
-0.0186767578125
-0.02105712890625
-0.0216064453125
-0.01995849609375
-0.0216064453125
-0.019775390624999997
-0.0146484375
-0.0157470703125
-0.01666259765625
-0.01904296875
-0.023437499999999997
-0.023254394531249997
-0.0180816650390625
-0.011535644531249998
-0.01263427734375
-0.0106201171875
-0.010437011718749998
-0.01300048828125
-0.012084960937499998
-0.00787353515625
-0.0032958984375
0.00384521484375
0.009887695312499998
0.014099121093749998
0.01629638671875
0.01666259765625
0.02252197265625
0.0216064453125
0.017578125
0.0216064453125
0.02471923828125
0.0260009765625
0.023437499999999997
0.0238037109375
0.0325927734375
0.0428466796875
0.04559326171874999
0.04797363281249999
0.05126953125
0.05364990234375
0.05291748046875
0.04541015625
0.0380859375
0.0347900390625
0.028564453125
0.022705078125
0.01885986328125
0.015014648437499998
0.01116943359375
0.0091552734375
0.005859374999999999
0.0012817382812499998
-0.00091552734375
-0.00091552734375
-0.0034790039062499996
-0.00640869140625
-0.00457763671875
0.00036621093749999995
0.0012817382812499998
0.00311279296875
0.0018310546875
-0.00018310546874999997
-0.00238037109375
-0.004211425781249999
-0.0054931640625
-0.0062255859375
-0.0062255859375
-0.008056640624999998
-0.0087890625
-0.01190185546875
-0.0087890625
-0.006958007812499999
-0.0032958984375
-0.004211425781249999
-0.00274658203125
-0.0010986328125
-0.0025634765624999996
-0.00787353515625
-0.009521484375
-0.0087890625
-0.00860595703125
-0.01263427734375
-0.014831542968750002
-0.01318359375
-0.012451171875
-0.011535644531249998
-0.008422851562499998
-0.003662109375
0.0007324218749999999
0.0186767578125
0.04559326171874999
0.0933837890625
0.16259765624999997
0.24389648437499997
0.33654785156249994
0.46032714843749994
0.59527587890625
0.721435546875
0.8173828125
0.88018798828125
0.9250488281249999
0.943359375
0.8726806640625
0.7126464843749999
0.44238281249999994
0.1043701171875
-0.1995849609375
-0.35211181640624994
-0.43386840820312494
-0.48394775390624994
-0.51470947265625
-0.5134277343749999
-0.49360656738281256
-0.462890625
-0.4171142578125
-0.36090087890624994
-0.2984619140625
-0.23835754394531247
-0.18182373046874997
-0.135498046875
-0.10015869140625
-0.08020019531249999
-0.07177734375
-0.06536865234375
-0.0589599609375
-0.05291748046875
-0.0531005859375
-0.052734375
-0.0494384765625
-0.04779052734374999
-0.044677734375
-0.03918457031249999
-0.032958984375
-0.027832031249999997
-0.020324707031249997
-0.0186767578125
-0.016113281249999997
-0.0142822265625
-0.010986328125
-0.0091552734375
-0.00732421875
-0.008422851562499998
-0.009887695312499998
-0.006591796875
-0.0007324218749999999
0.00384521484375
0.004211425781249999
0.009887695312499998
0.0135498046875
0.00787353515625
0.00439453125
0.0029296874999999996
0.0007324218749999999
0.00036621093749999995
0.005859374999999999
0.013366699218749998
0.017578125
0.01812744140625
0.015197753906249998
0.0164794921875
0.01904296875
0.0252685546875
0.0311279296875
0.03424072265625
0.03753662109375
0.0421142578125
0.0428466796875
0.04595947265625
0.050537109375
0.0545654296875
0.05474853515624999
0.0555267333984375
0.05401611328125
0.05346679687499999
0.05731201171874999
0.0626220703125
0.0640869140625
0.06372070312499999
0.06280517578125
0.06500244140625
0.0684814453125
0.07598876953125
0.08111572265625
0.08184814453125
0.08056640625
0.07818603515625
0.07946777343749999
0.0838623046875
0.0933837890625
0.10601806640624999
0.11499023437500001
0.11920166015624999
0.11956787109375
0.12194824218749999
0.1256103515625
0.1314697265625
0.136962890625
0.1380615234375
0.138427734375
0.138427734375
0.14392089843749997
0.14776611328125
0.150146484375
0.1556396484375
0.16040039062499997
0.16314697265624997
0.167724609375
0.17413330078124997
0.1787109375
0.18310546875
0.18457031249999997
0.18768310546875
0.18621826171874997
0.1871337890625
0.1871337890625
0.186767578125
0.18585205078125
0.1904296875
0.18896484375
0.18218994140625
0.17687988281249997
0.17413330078124997
0.16571044921875
0.1600341796875
0.15985107421875
0.1593017578125
0.15673828124999997
0.1494140625
0.13604736328125
0.12249755859374999
0.10949707031249999
0.09558105468749999
0.08020019531249999
0.0648193359375
0.0523681640625
0.03955078124999999
0.02545166015625
0.013916015624999998
0.0
-0.013916015624999998
-0.02947998046875
-0.044677734375
-0.06097412109374999
-0.07379150390624999
-0.08843994140624999
-0.10015869140625
-0.1080322265625
-0.11462402343749999
-0.12011718749999999
-0.122314453125
-0.1292724609375
-0.13256835937499997
-0.13275146484375
-0.13623046874999997
-0.144287109375
-0.154541015625
-0.1629638671875
-0.16864013671875
-0.17413330078124997
-0.17486572265625
-0.1710205078125
-0.1666259765625
-0.16278076171875
-0.16314697265624997
-0.167724609375
-0.1728515625
-0.17578125
-0.17706298828125
-0.17907714843749997
-0.16809082031249997
-0.1549072265625
-0.142822265625
-0.1380615234375
-0.139892578125
-0.141357421875
-0.14222717285156247
-0.14025878906249997
-0.1376953125
-0.13256835937499997
-0.1300048828125
-0.1278076171875
-0.12396240234375001
-0.12158203124999999
-0.12208557128906249
-0.12322998046875001
-0.12396240234375001
-0.12249755859374999
-0.117919921875
-0.11041259765625
-0.10766601562499999
-0.11059570312499999
-0.11480712890625
-0.11572265625
-0.11260986328125
-0.10766601562499999
-0.099609375
-0.09466552734375
-0.09722900390625
-0.100341796875
-0.10198974609374999
-0.1025390625
-0.10821533203125
-0.104736328125
-0.09356689453125
-0.08807373046875
-0.0849609375
-0.07379150390624999
-0.071044921875
-0.07708740234375
-0.08734130859374999
-0.09246826171875
-0.087890625
-0.0845947265625
-0.08056640625
-0.07708740234375
-0.076904296875
-0.0750732421875
-0.07086181640624999
-0.0728759765625
-0.0736083984375
-0.07232666015625
-0.06866455078125
-0.0736083984375
-0.08056640625
-0.08001708984375
-0.07177734375
-0.06280517578125
-0.05529785156249999
-0.05712890625
-0.06024169921875
-0.0677490234375
-0.07470703125
-0.07891845703125
-0.07836914062499999
-0.07653808593749999
-0.075439453125
-0.0721435546875
-0.07177734375
-0.07763671874999999
-0.079833984375
-0.08001708984375
-0.07470703125
-0.07177734375
-0.0728759765625
-0.07818603515625
-0.0849609375
-0.08624267578125
-0.08020019531249999
-0.0714111328125
-0.06738281249999999
-0.0626220703125
-0.06372070312499999
-0.0684814453125
-0.06500244140625
-0.057861328125
-0.05603027343749999
-0.05877685546875
-0.06079101562499999
-0.06298828125
-0.05877685546875
-0.05255126953124999
-0.05548095703125
-0.0633544921875
-0.0677490234375
-0.07159423828125
-0.07672119140625
-0.0728759765625
-0.07012939453124999
-0.0692138671875
-0.06738281249999999
-0.0714111328125
-0.0736083984375
-0.07122802734374999
-0.066650390625
-0.06170654296874999
-0.05859375
-0.05529785156249999
-0.05108642578125
-0.04486083984375
-0.03387451171875
-0.03167724609375
-0.03918457031249999
-0.04522705078124999
-0.04449462890625
-0.04083251953124999
-0.03222656249999999
-0.02197265625
-0.015930175781249997
-0.01629638671875
-0.028015136718749997
-0.03790283203124999
-0.03863525390625
-0.04229736328125
-0.04522705078124999
-0.05108642578125
-0.05877685546875
-0.05731201171874999
-0.0435791015625
-0.027099609375
-0.01922607421875
-0.015014648437499998
-0.015014648437499998
-0.025634765625
-0.03607177734375
-0.03405761718749999
-0.02362060546875
-0.01885986328125
-0.01885986328125
-0.02362060546875
-0.025634765625
-0.0263671875
-0.03057861328125
-0.035888671875
-0.03277587890624999
-0.0274658203125
-0.02197265625
-0.019409179687499997
-0.018814086914062497
-0.0025634765624999996
0.00640869140625
0.0047607421875
0.00714111328125
0.017028808593749997
0.028015136718749997
0.027832031249999997
0.021240234375
0.0164794921875
0.0135498046875
0.0128173828125
0.0106201171875
0.018310546875
0.023071289062499997
0.027832031249999997
0.03076171875
0.02288818359375
0.017578125
0.027099609375
0.027648925781249997
0.02178955078125
0.0186767578125
0.021240234375
0.02508544921875
0.022155761718749997
0.0128173828125
0.0020141601562499996
-0.0020141601562499996
-0.0091552734375
-0.01300048828125
-0.01007080078125
-0.00311279296875
0.004211425781249999
0.003662109375
-0.0032958984375
-0.013916015624999998
-0.01776123046875
-0.0076904296875
0.0062255859375
0.0029296874999999996
-0.006591796875
-0.020874023437499997
-0.026916503906249997
-0.02471923828125
-0.01904296875
-0.01666259765625
-0.017578125
-0.0142822265625
-0.014831542968750002
-0.0106201171875
-0.004028320312499999
-0.00036621093749999995
0.01263427734375
0.028747558593750003
0.0311279296875
0.02178955078125
0.0007324218749999999
-0.0164794921875
-0.015930175781249997
-0.011535644531249998
-0.00714111328125
-0.0025634765624999996
-0.00311279296875
-0.011718749999999998
-0.020874023437499997
-0.024353027343749997
0.006591796875
0.0567626953125
0.10949707031249999
0.18218994140625
0.27685546875
0.3870849609375
0.529541015625
0.670166015625
0.7869873046875
0.882568359375
0.93475341796875
0.948486328125
0.88037109375
0.7619018554687499
0.57000732421875
0.254150390625
-0.1025390625
-0.34826660156249994
-0.47534179687499994
-0.54656982421875
-0.5958251953124999
-0.61029052734375
-0.5820465087890625
-0.5350341796875
-0.4881134033203125
-0.4427490234375
-0.39660644531249994
-0.3387451171875
-0.28271484375
-0.22558593749999997
-0.1636962890625
-0.11297607421875
-0.07891845703125
-0.0677490234375
-0.07012939453124999
-0.0692138671875
-0.05914306640624999
-0.04010009765624999
-0.019775390624999997
-0.005126953124999999
-0.006042480468749999
-0.01629638671875
-0.020874023437499997
-0.01776123046875
-0.0076904296875
0.0034790039062499996
0.005126953124999999
-0.0032958984375
-0.005859374999999999
0.0018310546875
0.011718749999999998
0.017578125
0.020874023437499997
0.02508544921875
0.02142333984375
0.01995849609375
0.02490234375
0.03076171875
0.029663085937500003
0.023437499999999997
0.019775390624999997
0.02471923828125
0.02178955078125
0.0260009765625
0.03698730468749999
0.04595947265625
0.05529785156249999
0.05859375
0.04669189453125
0.03955078124999999
0.04833984374999999
0.05621337890624999
0.05932617187500001
0.06353759765625
0.06536865234375
0.05987548828124999
0.06005859374999999
0.06298828125
0.06939697265625
0.07836914062499999
0.0823974609375
0.08074951171875
0.07379150390624999
0.07177734375
0.06829833984374999
0.07489013671874999
0.0897216796875
0.10510253906249999
0.11187744140625
0.11315917968749999
0.11682128906250001
0.11151123046874999
0.101806640625
0.10455322265624999
0.11645507812499999
0.12194824218749999
0.12103271484374997
0.1175537109375
0.11206054687499999
0.11553955078124999
0.12652587890625
0.14245605468749997
0.15307617187499997
0.16021728515625
0.164794921875
0.16845703125
0.167724609375
0.16552734374999997
0.1710205078125
0.18054199218749997
0.186767578125
0.186767578125
0.17449951171874997
0.177978515625
0.19427490234375
0.20819091796875
0.216064453125
0.2164306640625
0.21697998046875
0.21551513671875
0.21203613281249997
0.21624755859374997
0.2178955078125
0.22412109374999997
0.2318115234375
0.2314453125
0.223388671875
0.2164306640625
0.22265624999999997
0.24041748046874997
0.2490234375
0.24810791015625003
0.24664306640624997
0.24005126953125003
0.22943115234374997
0.21697998046875
0.20764160156249997
0.192626953125
0.17541503906249997
0.16333007812499997
0.15893554687499997
0.157470703125
0.14776611328125
0.13110351562499997
0.11517333984374999
0.10052490234374999
0.08294677734375
0.0633544921875
0.04614257812499999
0.02655029296875
0.00238037109375
-0.01995849609375
-0.03918457031249999
-0.05328369140625
-0.05859375
-0.05932617187500001
-0.06628417968749999
-0.075439453125
-0.0849609375
-0.09539794921875
-0.10345458984375
-0.106201171875
-0.11334228515624999
-0.12487792968749999
-0.13330078125
-0.13641357421875
-0.13677978515625
-0.13128662109375
-0.1270751953125
-0.12744140624999997
-0.13128662109375
-0.13330078125
-0.136962890625
-0.14227294921875
-0.14208984375
-0.13824462890625
-0.13568115234375
-0.1387939453125
-0.14208984375
-0.14172363281249997
-0.14172363281249997
-0.14117431640624997
-0.13385009765624997
-0.1259765625
-0.12268066406249999
-0.1212158203125
-0.11627197265625
-0.11187744140625
-0.11114501953125
-0.11682128906250001
-0.11810302734375
-0.11279296874999999
-0.10949707031249999
-0.1072998046875
-0.10308837890624999
-0.099609375
-0.09814453124999999
-0.09869384765624999
-0.09814453124999999
-0.09320068359375
-0.08642578125
-0.08514404296875
-0.08294677734375
-0.08129882812499999
-0.08001708984375
-0.07653808593749999
-0.069580078125
-0.06500244140625
-0.0626220703125
-0.0648193359375
-0.06317138671875
-0.06353759765625
-0.05877685546875
-0.05438232421874999
-0.04888916015624999
-0.04229736328125
-0.03918457031249999
-0.04101562499999999
-0.0399169921875
-0.03863525390625
-0.0347900390625
-0.03350830078124999
-0.0325927734375
-0.03076171875
-0.02838134765625
-0.023254394531249997
-0.02288818359375
-0.023986816406249997
-0.025817871093749997
-0.02618408203125
-0.024536132812499997
-0.028015136718749997
-0.030029296874999997
-0.02984619140625
-0.0289306640625
-0.027648925781249997
-0.0263671875
-0.025817871093749997
-0.0252685546875
-0.028015136718749997
-0.0289306640625
-0.028198242187499997
-0.026733398437499997
-0.029113769531249997
-0.030395507812499997
-0.03204345703125
-0.034423828125
-0.03497314453125
-0.029113769531249997
-0.02838134765625
-0.029296875
-0.03131103515625
-0.031494140625
-0.031494140625
-0.03350830078124999
-0.02984619140625
-0.02655029296875
-0.0260009765625
-0.025634765625
-0.024536132812499997
-0.02471923828125
-0.0260009765625
-0.024353027343749997
-0.0216064453125
-0.021240234375
-0.02252197265625
-0.022155761718749997
-0.02105712890625
-0.02142333984375
-0.024169921874999997
-0.0263671875
-0.02508544921875
-0.028198242187499997
-0.0289306640625
-0.02728271484375
-0.02508544921875
-0.02178955078125
-0.019409179687499997
-0.0186767578125
-0.0164794921875
-0.01666259765625
-0.020507812499999997
-0.0263671875
-0.03186035156249999
-0.0311279296875
-0.02838134765625
-0.01904296875
-0.0106201171875
-0.00531005859375
0.00036621093749999995
0.0014648437499999998
0.0007324218749999999
0.0018310546875
0.0025634765624999996
0.002197265625
-0.00164794921875
-0.00531005859375
-0.0010986328125
0.00531005859375
0.01263427734375
0.0146484375
0.013916015624999998
0.015197753906249998
0.0223388671875
0.028015136718749997
0.0347900390625
0.03698730468749999
0.03753662109375
0.03936767578125
0.03717041015625
0.03717041015625
0.035888671875
0.0384521484375
0.0421142578125
0.04888916015624999
0.0567626953125
0.0567626953125
0.05126953125
0.04302978515625
0.03186035156249999
0.02362060546875
0.01556396484375
0.012268066406249998
0.012084960937499998
0.0146484375
0.018493652343749997
0.019775390624999997
0.01885986328125
0.017028808593749997
0.01116943359375
0.006958007812499999
0.0014648437499999998
0.00054931640625
0.0014648437499999998
0.002197265625
0.00164794921875
0.0034790039062499996
0.00384521484375
0.0014648437499999998
-0.0018310546875
-0.004028320312499999
-0.00384521484375
-0.00384521484375
-0.00567626953125
-0.00714111328125
-0.007507324218749999
-0.00787353515625
-0.00714111328125
-0.00823974609375
-0.00787353515625
-0.00567626953125
-0.008056640624999998
-0.0087890625
-0.0091552734375
-0.009704589843749998
-0.010253906249999998
-0.0076904296875
-0.00457763671875
-0.00714111328125
-0.0091552734375
-0.006958007812499999
-0.0076904296875
-0.00567626953125
-0.0014648437499999998
0.0029296874999999996
0.013916015624999998
0.034423828125
0.06811523437499999
0.11151123046874999
0.18072509765625
0.26861572265625
0.37499999999999994
0.51708984375
0.6608276367187499
0.7921142578125
0.8983154296875
0.9613037109375
0.99993896484375
0.9706420898437499
0.8580322265625
0.6584472656249999
0.3533935546875
0.004211425781249999
-0.27392578125
-0.42205810546875
-0.511962890625
-0.5712890625
-0.593719482421875
-0.5670776367187499
-0.5218505859375
-0.47991943359375
-0.44348144531249994
-0.40283203125
-0.3460693359375
-0.28765869140624994
-0.228515625
-0.17047119140624997
-0.1204833984375
-0.08441162109375
-0.05822753906249999
-0.04193115234375
-0.03662109375
-0.03405761718749999
-0.0341949462890625
-0.03570556640625
-0.0377197265625
-0.03680419921875
-0.03186035156249999
-0.02490234375
-0.0172119140625
-0.01300048828125
-0.00567626953125
-0.00036621093749999995
0.0
-0.00164794921875
0.0025634765624999996
0.006958007812499999
0.0106201171875
0.0106201171875
0.012451171875
0.0164794921875
0.0216064453125
0.024169921874999997
0.02655029296875
0.03076171875
0.030029296874999997
0.029113769531249997
0.03643798828125
0.03826904296874999
0.03973388671874999
0.04046630859374999
0.043212890625
0.04541015625
0.0450439453125
0.04431152343749999
0.04339599609375
0.04705810546874999
0.04888916015624999
0.052734375
0.05419921875
0.05346679687499999
0.05694580078124999
0.05987548828124999
0.0626220703125
0.0640869140625
0.06463623046875
0.06793212890625
0.0732421875
0.0743408203125
0.07745361328125
0.08056640625
0.0849609375
0.0867919921875
0.090087890625
0.0908203125
0.09246826171875
0.09667968749999999
0.10089111328125
0.10052490234374999
0.10400390625
0.10784912109375
0.11279296874999999
0.1142578125
0.11737060546874999
0.11737060546874999
0.11737060546874999
0.120849609375
0.12286376953125
0.1256103515625
0.13037109375
0.13623046874999997
0.14007568359375
0.14373779296875
0.14794921874999997
0.154541015625
0.16040039062499997
0.16442871093749997
0.169921875
0.17742919921875
0.18237304687499997
0.18603515624999997
0.19207763671875
0.19628906249999997
0.19738769531249997
0.19976806640624997
0.19976806640624997
0.20233154296875
0.20489501953124997
0.20892333984374997
0.21240234375
0.214599609375
0.2149658203125
0.21478271484374997
0.2109375
0.20745849609374997
0.205078125
0.20123291015624997
0.19757080078124997
0.19372558593749997
0.18768310546875
0.1827392578125
0.177978515625
0.17431640625
0.16717529296875
0.16040039062499997
0.1483154296875
0.1336669921875
0.11663818359374999
0.0999755859375
0.08587646484374999
0.06683349609375
0.05163574218749999
0.0355224609375
0.01776123046875
0.0032958984375
-0.01556396484375
-0.028564453125
-0.04193115234375
-0.052734375
-0.0640869140625
-0.076904296875
-0.0908203125
-0.0992431640625
-0.10510253906249999
-0.11297607421875
-0.121307373046875
-0.1278076171875
-0.1329345703125
-0.13970947265625
-0.15087890625
-0.156005859375
-0.1534423828125
-0.15435791015624997
-0.15875244140625
-0.16186523437499997
-0.16424560546875
-0.16461181640624997
-0.16442871093749997
-0.16461181640624997
-0.16259765624999997
-0.16186523437499997
-0.16424560546875
-0.1611328125
-0.15966796875
-0.1629638671875
-0.157470703125
-0.15655517578125
-0.15765380859374997
-0.1519775390625
-0.147216796875
-0.14666748046874997
-0.142822265625
-0.140625
-0.138427734375
-0.1358642578125
-0.13330078125
-0.12982177734375
-0.12744140624999997
-0.12487792968749999
-0.12158203124999999
-0.11865234375000001
-0.11645507812499999
-0.11407470703125
-0.11279296874999999
-0.11151123046874999
-0.10876464843749999
-0.104736328125
-0.104736328125
-0.10052490234374999
-0.0970458984375
-0.09667968749999999
-0.0933837890625
-0.09136962890625
-0.08734130859374999
-0.08331298828125
-0.0838623046875
-0.0875244140625
-0.08843994140624999
-0.08843994140624999
-0.0867919921875
-0.08349609374999999
-0.07910156249999999
-0.07928466796875
-0.08038330078124999
-0.08111572265625
-0.08258056640625
-0.0780029296875
-0.07562255859374999
-0.072509765625
-0.07232666015625
-0.07177734375
-0.07086181640624999
-0.07049560546875
-0.0714111328125
-0.072509765625
-0.07635498046875
-0.0736083984375
-0.0732421875
-0.07397460937499999
-0.07452392578124999
-0.07269287109374999
-0.0699462890625
-0.07232666015625
-0.072509765625
-0.06701660156249999
-0.06555175781249999
-0.06445312499999999
-0.0648193359375
-0.06536865234375
-0.06372070312499999
-0.06573486328125
-0.06811523437499999
-0.0699462890625
-0.07177734375
-0.06939697265625
-0.07196044921874999
-0.07305908203124999
-0.0721435546875
-0.07086181640624999
-0.0721435546875
-0.07049560546875
-0.06976318359375
-0.06811523437499999
-0.06884765625
-0.06939697265625
-0.06903076171875
-0.06646728515625
-0.06280517578125
-0.06170654296874999
-0.06610107421875
-0.06390380859375
-0.061889648437499986
-0.06298828125
-0.06134033203124999
-0.05657958984374999
-0.05712890625
-0.05639648437499999
-0.05859375
-0.05822753906249999
-0.06079101562499999
-0.06280517578125
-0.05841064453125001
-0.05657958984374999
-0.0567626953125
-0.0589599609375
-0.05474853515624999
-0.05346679687499999
-0.05346679687499999
-0.04907226562499999
-0.04550170898437499
-0.04541015625
-0.04412841796875
-0.04595947265625
-0.04595947265625
-0.04614257812499999
-0.04522705078124999
-0.044677734375
-0.04248046875
-0.0399169921875
-0.04193115234375
-0.04339599609375
-0.04650878906249999
-0.044677734375
-0.04339599609375
-0.03973388671874999
-0.03570556640625
-0.03570556640625
-0.03698730468749999
-0.04046630859374999
-0.04138183593749999
-0.03607177734375
-0.030029296874999997
-0.02252197265625
-0.01739501953125
-0.0135498046875
-0.012084960937499998
-0.00640869140625
0.0
0.006958007812499999
0.0087890625
0.01318359375
0.01922607421875
0.024169921874999997
0.024169921874999997
0.020507812499999997
0.02105712890625
0.019775390624999997
0.021240234375
0.02362060546875
0.0238037109375
0.02252197265625
0.020874023437499997
0.01739501953125
0.012084960937499998
0.005126953124999999
0.0010986328125
-0.002197265625
-0.00311279296875
-0.003662109375
-0.007507324218749999
-0.0087890625
-0.012084960937499998
-0.012084960937499998
-0.010986328125
-0.01263427734375
-0.01263427734375
-0.01318359375
-0.012268066406249998
-0.00787353515625
-0.00531005859375
-0.0054931640625
-0.0047607421875
-0.00439453125
-0.006958007812499999
-0.008422851562499998
-0.00732421875
-0.0054931640625
-0.00457763671875
-0.00439453125
-0.009521484375
-0.013137817382812498
-0.013916015624999998
-0.015197753906249998
-0.01556396484375
-0.016113281249999997
-0.017028808593749997
-0.021240234375
-0.024169921874999997
-0.0201416015625
-0.016845703124999997
-0.015197753906249998
-0.012268066406249998
-0.0113525390625
-0.011718749999999998
-0.013916015624999998
-0.015014648437499998
-0.010437011718749998
-0.00164794921875
0.006958007812499999
0.023986816406249997
0.0545654296875
0.10125732421874999
0.17779541015625
0.26092529296875
0.36090087890624994
0.4921875
0.63702392578125
0.7673950195312499
0.8677368164062499
0.9400634765625001
0.9990234374999999
1.0294189453125
0.95159912109375
0.768310546875
0.48065185546875
0.128173828125
-0.18365478515624997
-0.34442138671874994
-0.43066406249999994
-0.47845458984374994
-0.50390625
-0.5046386718749999
-0.48193359375
-0.44348144531249994
-0.39166259765625
-0.3387451171875
-0.28088378906249994
-0.21917724609374997
-0.16040039062499997
-0.11242675781249999
-0.079833984375
-0.061889648437499986
-0.05511474609374999
-0.05328369140625
-0.0531005859375
-0.05163574218749999
-0.0523681640625
-0.050537109375
-0.04559326171874999
-0.0428466796875
-0.04302978515625
-0.0377197265625
-0.031494140625
-0.028564453125
-0.025817871093749997
-0.022155761718749997
-0.01995849609375
-0.018493652343749997
-0.014831542968750002
-0.014831542968750002
-0.01373291015625
-0.00787353515625
-0.00384521484375
-0.00018310546874999997
0.0012817382812499998
0.00439453125
0.0029296874999999996
0.0014648437499999998
0.0018310546875
0.002197265625
0.0018310546875
0.0029296874999999996
0.005859374999999999
0.010437011718749998
0.01263427734375
0.012451171875
0.016113281249999997
0.01885986328125
0.021240234375
0.023071289062499997
0.0223388671875
0.02545166015625
0.029296875
0.03222656249999999
0.0355224609375
0.03698730468749999
0.03881835937499999
0.04083251953124999
0.0421142578125
0.03881835937499999
0.04156494140624999
0.04046630859374999
0.040283203125
0.04339599609375
0.04687499999999999
0.05072021484375
0.05603027343749999
0.06060791015625
0.06243896484374999
0.0703125
0.07653808593749999
0.07818603515625
0.08148193359375
0.08587646484374999
0.09100341796874999
0.0933837890625
0.09576416015625
0.098876953125
0.10015869140625
0.10382080078124999
0.11041259765625
0.1171875
0.12103271484374997
0.1256103515625
0.1270751953125
0.12725830078125
0.129638671875
0.13256835937499997
0.13403320312499997
0.13623046874999997
0.1431884765625
0.1468505859375
0.15051269531249997
0.15545654296874997
0.15985107421875
0.16699218749999997
0.17431640625
0.17578125
0.17999267578125
0.18658447265625
0.18969726562499997
0.1922607421875
0.19464111328124997
0.19537353515625
0.19427490234375
0.1929931640625
0.19189453124999997
0.18951416015625
0.19097900390624997
0.18896484375
0.18621826171874997
0.18072509765625
0.177978515625
0.1728515625
0.16845703125
0.15911865234374997
0.14978027343749997
0.1431884765625
0.1329345703125
0.12194824218749999
0.11132812499999999
0.1025390625
0.0889892578125
0.0750732421875
0.0615234375
0.04669189453125
0.03350830078124999
0.020874023437499997
0.006591796875
-0.006591796875
-0.0201416015625
-0.027832031249999997
-0.03863525390625
-0.052001953125
-0.0589599609375
-0.07232666015625
-0.08312988281249999
-0.0919189453125
-0.10107421875
-0.10565185546874999
-0.113525390625
-0.11627197265625
-0.11883544921874999
-0.1212158203125
-0.123046875
-0.12176513671875
-0.1285400390625
-0.126708984375
-0.1256103515625
-0.1263427734375
-0.1278076171875
-0.1307373046875
-0.13110351562499997
-0.13037109375
-0.12762451171874997
-0.125244140625
-0.12359619140625
-0.1212158203125
-0.11920166015624999
-0.12066650390624999
-0.12030029296874999
-0.11645507812499999
-0.11370849609374999
-0.11114501953125
-0.10876464843749999
-0.10528564453125
-0.1025390625
-0.10601806640624999
-0.10162353515625
-0.1058349609375
-0.10748291015625
-0.10455322265624999
-0.1021728515625
-0.09869384765624999
-0.09558105468749999
-0.09539794921875
-0.09558105468749999
-0.09521484375
-0.09521484375
-0.09411621093749999
-0.09136962890625
-0.0919189453125
-0.091552734375
-0.09228515624999999
-0.08843994140624999
-0.0882568359375
-0.08935546875
-0.08221435546874999
-0.0787353515625
-0.07580566406249999
-0.0743408203125
-0.0732421875
-0.0750732421875
-0.07598876953125
-0.07781982421875
-0.08166503906249999
-0.07781982421875
-0.076904296875
-0.07763671874999999
-0.07415771484375
-0.07049560546875
-0.0714111328125
-0.071044921875
-0.07086181640624999
-0.0677490234375
-0.06701660156249999
-0.06646728515625
-0.06573486328125
-0.06353759765625
-0.0626220703125
-0.06390380859375
-0.06683349609375
-0.066650390625
-0.06427001953125
-0.0567626953125
-0.05621337890624999
-0.05529785156249999
-0.04998779296875
-0.0497589111328125
-0.04998779296875
-0.04742431640624999
-0.04742431640624999
-0.04870605468749999
-0.0501708984375
-0.04852294921875
-0.0494384765625
-0.0498046875
-0.04669189453125
-0.04376220703125
-0.04595947265625
-0.05126953125
-0.052734375
-0.05145263671875
-0.04998779296875
-0.04962158203125
-0.0494384765625
-0.04797363281249999
-0.04815673828125
-0.04632568359375
-0.04705810546874999
-0.04742431640624999
-0.04522705078124999
-0.04431152343749999
-0.04431152343749999
-0.04595947265625
-0.04687499999999999
-0.0439453125
-0.0439453125
-0.0439453125
-0.043212890625
-0.0439453125
-0.0450439453125
-0.0421142578125
-0.03790283203124999
-0.03881835937499999
-0.03497314453125
-0.03497314453125
-0.035888671875
-0.03643798828125
-0.0355224609375
-0.03350830078124999
-0.0311279296875
-0.03076171875
-0.02947998046875
-0.03021240234375
-0.031494140625
-0.028198242187499997
-0.026916503906249997
-0.024169921874999997
-0.0216064453125
-0.021240234375
-0.019592285156249997
-0.02197265625
-0.0223388671875
-0.0238037109375
-0.02618408203125
-0.02490234375
-0.0223388671875
-0.020507812499999997
-0.0164794921875
-0.01080322265625
-0.0054931640625
-0.002197265625
0.0032958984375
0.01300048828125
0.01776123046875
0.019409179687499997
0.02178955078125
0.0216064453125
0.0238494873046875
0.024536132812499997
0.03021240234375
0.03680419921875
0.0421142578125
0.0494384765625
0.0531005859375
0.05218505859375
0.04779052734374999
0.04522705078124999
0.03698730468749999
0.028747558593750003
0.02288818359375
0.020690917968749997
0.01739501953125
0.012268066406249998
0.010437011718749998
0.006958007812499999
0.00384521484375
0.0
-0.00311279296875
-0.0054931640625
-0.007507324218749999
-0.00787353515625
-0.0047607421875
-0.004028320312499999
-0.004028320312499999
-0.005859374999999999
-0.0076904296875
-0.00714111328125
-0.006042480468749999
-0.0113525390625
-0.012084960937499998
-0.010253906249999998
-0.00860595703125
-0.0091552734375
-0.01190185546875
-0.015014648437499998
-0.0157470703125
-0.015380859375
-0.015197753906249998
-0.015014648437499998
-0.016113281249999997
-0.01556396484375
-0.016845703124999997
-0.0216064453125
-0.01318359375
-0.0142822265625
-0.01263427734375
-0.01116943359375
-0.0135498046875
-0.0113525390625
-0.01318359375
-0.01446533203125
-0.0087890625
-0.00018310546874999997
0.0106201171875
0.0333251953125
0.072509765625
0.13110351562499997
0.20819091796875
0.29901123046875
0.41491699218749994
0.5526123046875
0.68646240234375
0.796875
0.87451171875
0.9287109375
0.9673461914062499
0.9312744140625
0.7987060546874999
0.557373046875
0.23382568359374997
-0.09906005859375
-0.31091308593749994
-0.41656494140625
-0.48046874999999994
-0.5185546875
-0.53045654296875
-0.514892578125
-0.47900390624999994
-0.43414306640625
-0.3775634765625
-0.31622314453124994
-0.25323486328125
-0.19628906249999997
-0.142822265625
-0.098876953125
-0.06884765625
-0.0589599609375
-0.05657958984374999
-0.05822753906249999
-0.05841064453125001
-0.05126953125
-0.04779052734374999
-0.04687499999999999
-0.04742431640624999
-0.0457763671875
-0.0428009033203125
-0.040283203125
-0.03240966796875
-0.028198242187499997
-0.0238037109375
-0.01995849609375
-0.019409179687499997
-0.018493652343749997
-0.01373291015625
-0.012268066406249998
-0.00732421875
-0.0025634765624999996
-0.0012817382812499998
0.0014648437499999998
0.00036621093749999995
0.00054931640625
0.0025634765624999996
0.0014648437499999998
-0.0007324218749999999
0.004943847656249999
0.009521484375
0.010986328125
0.013916015624999998
0.015014648437499998
0.015197753906249998
0.016113281249999997
0.01812744140625
0.020874023437499997
0.023437499999999997
0.023986816406249997
0.029113769531249997
0.028198242187499997
0.03186035156249999
0.03405761718749999
0.03533935546875
0.040283203125
0.04302978515625
0.04650878906249999
0.0509033203125
0.05126953125
0.052734375
0.05621337890624999
0.05950927734375
0.06134033203124999
0.0633544921875
0.06427001953125
0.0692138671875
0.07177734375
0.07562255859374999
0.0721435546875
0.075439453125
0.076904296875
0.07836914062499999
0.08312988281249999
0.0889892578125
0.09484863281249999
0.09686279296874999
0.10162353515625
0.1036376953125
0.10748291015625
0.11572265625
0.11590576171875
0.12030029296874999
0.1259765625
0.1300048828125
0.1336669921875
0.13403320312499997
0.13751220703124997
0.14007568359375
0.147216796875
0.15087890625
0.15380859375
0.1563720703125
0.1600341796875
0.1622314453125
0.1688232421875
0.17687988281249997
0.17999267578125
0.18090820312499997
0.1842041015625
0.18768310546875
0.18896484375
0.1922607421875
0.19335937499999997
0.1959228515625
0.1995849609375
0.19903564453125
0.1922607421875
0.1878662109375
0.18310546875
0.18548583984374997
0.186767578125
0.18218994140625
0.17687988281249997
0.16864013671875
0.1611328125
0.15234375
0.14794921874999997
0.1322021484375
0.11499023437500001
0.09667968749999999
0.08203124999999999
0.06701660156249999
0.04650878906249999
0.0252685546875
0.0076904296875
-0.0032958984375
-0.019409179687499997
-0.03369140624999999
-0.04797363281249999
-0.05804443359375
-0.0732421875
-0.0845947265625
-0.0999755859375
-0.11206054687499999
-0.11737060546874999
-0.12414550781250001
-0.1329345703125
-0.13970947265625
-0.14245605468749997
-0.14666748046874997
-0.14978027343749997
-0.15069580078125
-0.15435791015624997
-0.16094970703125
-0.16406249999999997
-0.16461181640624997
-0.1658935546875
-0.16497802734375
-0.16094970703125
-0.15673828124999997
-0.15289306640625
-0.1519775390625
-0.150146484375
-0.14758300781249997
-0.14758300781249997
-0.150146484375
-0.1483154296875
-0.14703369140625
-0.14245605468749997
-0.140625
-0.135498046875
-0.13311767578125
-0.13037109375
-0.1278076171875
-0.1322021484375
-0.13092041015625
-0.12744140624999997
-0.1270751953125
-0.1270751953125
-0.12615966796874997
-0.12158203124999999
-0.12268066406249999
-0.12286376953125
-0.1171875
-0.11444091796875
-0.11315917968749999
-0.1116943359375
-0.11077880859375
-0.10858154296875
-0.104736328125
-0.1007080078125
-0.10015869140625
-0.0963134765625
-0.09722900390625
-0.09649658203125
-0.09356689453125
-0.094482421875
-0.09521484375
-0.0926513671875
-0.09210205078125
-0.09027099609374999
-0.0875244140625
-0.07965087890625
-0.0780029296875
-0.07781982421875
-0.07763671874999999
-0.07653808593749999
-0.07781982421875
-0.08001708984375
-0.08129882812499999
-0.079833984375
-0.07672119140625
-0.0728759765625
-0.0706787109375
-0.07196044921874999
-0.06756591796875
-0.06646728515625
-0.06738281249999999
-0.06939697265625
-0.06976318359375
-0.07012939453124999
-0.0714111328125
-0.06573486328125
-0.06170654296874999
-0.05950927734375
-0.0596923828125
-0.0604248046875
-0.05822753906249999
-0.057861328125
-0.05932617187500001
-0.05804443359375
-0.05950927734375
-0.061889648437499986
-0.06024169921875
-0.0615234375
-0.06646728515625
-0.06591796875
-0.066650390625
-0.0611572265625
-0.06005859374999999
-0.06134033203124999
-0.05841064453125001
-0.05346679687499999
-0.052734375
-0.0545654296875
-0.054931640625
-0.05731201171874999
-0.057861328125
-0.05914306640624999
-0.0589599609375
-0.05603027343749999
-0.05291748046875
-0.0498046875
-0.04925537109374999
-0.0494384765625
-0.047607421875
-0.04650878906249999
-0.04687499999999999
-0.04669189453125
-0.04486083984375
-0.044677734375
-0.04412841796875
-0.0457763671875
-0.04705810546874999
-0.04595947265625
-0.04614257812499999
-0.04815673828125
-0.04870605468749999
-0.04705810546874999
-0.04687499999999999
-0.047607421875
-0.04595947265625
-0.04193115234375
-0.04156494140624999
-0.040283203125
-0.03698730468749999
-0.03515625
-0.03460693359375
-0.03424072265625
-0.0311279296875
-0.02178955078125
-0.023071289062499997
-0.023437499999999997
-0.01922607421875
-0.01812744140625
-0.0146484375
-0.014831542968750002
-0.019775390624999997
-0.023071289062499997
-0.023254394531249997
-0.028564453125
-0.022705078125
-0.01263427734375
-0.010437011718749998
-0.012451171875
-0.012084960937499998
-0.0113525390625
-0.011718749999999998
-0.014831542968750002
-0.012268066406249998
-0.00640869140625
0.0014648437499999998
0.009704589843749998
0.0142822265625
0.0142822265625
0.01373291015625
0.0179443359375
0.025817871093749997
0.02728271484375
0.0274658203125
0.02947998046875
0.030395507812499997
0.03277587890624999
0.03717041015625
0.0439453125
0.05145263671875
0.054931640625
0.05749511718750001
0.05694580078124999
0.0509033203125
0.04742431640624999
0.040283203125
0.03314208984374999
0.03076171875
0.02490234375
0.020874023437499997
0.02197265625
0.023071289062499997
0.020507812499999997
0.015014648437499998
0.011718749999999998
0.006591796875
0.0020141601562499996
-0.002197265625
-0.0047607421875
-0.006958007812499999
-0.00823974609375
-0.0087890625
-0.0087890625
-0.00823974609375
-0.006042480468749999
-0.00457763671875
-0.00787353515625
-0.010253906249999998
-0.015014648437499998
-0.01812744140625
-0.01812744140625
-0.01812744140625
-0.019409179687499997
-0.020507812499999997
-0.0201416015625
-0.02197265625
-0.02197265625
-0.020507812499999997
-0.024353027343749997
-0.022705078125
-0.020874023437499997
-0.02490234375
-0.020874023437499997
-0.017578125
-0.018493652343749997
-0.0216064453125
-0.02252197265625
-0.021240234375
-0.02105712890625
-0.016113281249999997
-0.00787353515625
0.00457763671875
0.0186767578125
0.04742431640624999
0.09759521484375
0.16699218749999997
0.25030517578124994
0.34954833984374994
0.4775390625
0.6101074218749999
0.7342529296875
0.8184814453125
0.8741455078125
0.9122314453124999
0.908935546875
0.8192138671874999
0.6357421874999999
0.35083007812499994
0.0172119140625
-0.25323486328125
-0.3856201171875
-0.46636962890625
-0.51727294921875
-0.54052734375
-0.52093505859375
-0.48687744140624994
-0.4486083984375
-0.3980712890625
-0.34222412109375
-0.28143310546875
-0.2186279296875
-0.15728759765625
-0.10400390625
-0.06646728515625
-0.04687499999999999
-0.0384521484375
-0.03881835937499999
-0.0362548828125
-0.0355224609375
-0.0311279296875
-0.03076171875
-0.029663085937500003
-0.030029296874999997
-0.030395507812499997
-0.029663085937500003
-0.02947998046875
-0.0287017822265625
-0.029663085937500003
-0.024169921874999997
-0.0238037109375
-0.024536132812499997
-0.019775390624999997
-0.01739501953125
-0.0179443359375
-0.018310546875
-0.016845703124999997
-0.010986328125
-0.0087890625
-0.00457763671875
-0.0010986328125
0.00054931640625
-0.00036621093749999995
-0.0047607421875
-0.003662109375
0.0014648437499999998
0.0010986328125
0.005126953124999999
0.010253906249999998
0.014831542968750002
0.014099121093749998
0.0128173828125
0.01556396484375
0.0142822265625
0.01995849609375
0.025634765625
0.020690917968749997
0.022705078125
0.026733398437499997
0.0274658203125
0.03131103515625
0.035888671875
0.03826904296874999
0.04541015625
0.04870605468749999
0.05548095703125
0.05657958984374999
0.06097412109374999
0.06811523437499999
0.06811523437499999
0.0692138671875
0.0706787109375
0.07708740234375
0.08111572265625
0.08276367187499999
0.0845947265625
0.08294677734375
0.087158203125
0.090087890625
0.09228515624999999
0.09521484375
0.099609375
0.1007080078125
0.1043701171875
0.10638427734374999
0.11187744140625
0.11810302734375
0.12194824218749999
0.12542724609375
0.12945556640625
0.13604736328125
0.1435546875
0.14447021484375
0.14666748046874997
0.15216064453125
0.15692138671874997
0.16040039062499997
0.16552734374999997
0.169921875
0.1724853515625
0.17578125
0.17889404296875
0.18200683593749997
0.18603515624999997
0.19335937499999997
0.1981201171875
0.19940185546875
0.20159912109375
0.20343017578124997
0.20361328125
0.20379638671874997
0.204345703125
0.20599365234375
0.20343017578124997
0.19647216796875
0.19720458984375
0.1929931640625
0.18603515624999997
0.179443359375
0.17321777343749997
0.16406249999999997
0.154541015625
0.144287109375
0.1336669921875
0.12194824218749999
0.10986328125
0.09246826171875
0.07928466796875
0.06372070312499999
0.04962158203125
0.034423828125
0.0201416015625
0.002197265625
-0.0164794921875
-0.028015136718749997
-0.03955078124999999
-0.05126953125
-0.0589599609375
-0.072509765625
-0.08093261718749999
-0.09027099609374999
-0.10107421875
-0.10968017578125
-0.11828613281249999
-0.122314453125
-0.12377929687499997
-0.1285400390625
-0.13110351562499997
-0.1318359375
-0.13330078125
-0.13476562499999997
-0.136962890625
-0.13897705078124997
-0.14007568359375
-0.14208984375
-0.1387939453125
-0.13531494140624997
-0.13531494140624997
-0.1387939453125
-0.13714599609375
-0.1329345703125
-0.13201904296875
-0.13330078125
-0.12799072265625
-0.12396240234375001
-0.12341308593749999
-0.12286376953125
-0.11975097656249999
-0.12213134765625
-0.12066650390624999
-0.11682128906250001
-0.11517333984374999
-0.11645507812499999
-0.11499023437500001
-0.11114501953125
-0.10693359374999999
-0.10528564453125
-0.10327148437499999
-0.10089111328125
-0.1014404296875
-0.10089111328125
-0.09851074218749999
-0.0963134765625
-0.09429931640625
-0.09374999999999999
-0.09320068359375
-0.09100341796874999
-0.08862304687499999
-0.08642578125
-0.08404541015624999
-0.08294677734375
-0.08331298828125
-0.08404541015624999
-0.08404541015624999
-0.0823974609375
-0.0849609375
-0.08660888671874999
-0.0926513671875
-0.09210205078125
-0.08917236328124999
-0.08258056640625
-0.07910156249999999
-0.07891845703125
-0.07836914062499999
-0.07745361328125
-0.07745361328125
-0.07855224609375
-0.07635498046875
-0.07470703125
-0.07489013671874999
-0.07232666015625
-0.06793212890625
-0.06573486328125
-0.06646728515625
-0.06701660156249999
-0.06866455078125
-0.0692138671875
-0.0692138671875
-0.06976318359375
-0.065185546875
-0.06097412109374999
-0.06079101562499999
-0.061889648437499986
-0.06390380859375
-0.06628417968749999
-0.06353759765625
-0.06097412109374999
-0.0596923828125
-0.0567626953125
-0.05383300781249999
-0.052734375
-0.05181884765625
-0.05511474609374999
-0.05364990234375
-0.0494384765625
-0.04449462890625
-0.04174804687499999
-0.04266357421875
-0.043212890625
-0.0439453125
-0.043212890625
-0.04248046875
-0.04064941406249999
-0.03936767578125
-0.03698730468749999
-0.03698730468749999
-0.04064941406249999
-0.037353515625
-0.0362548828125
-0.0380859375
-0.03918457031249999
-0.0399169921875
-0.04229736328125
-0.04742431640624999
-0.04650878906249999
-0.04119873046875
-0.03936767578125
-0.03424072265625
-0.029113769531249997
-0.027099609375
-0.02362060546875
-0.0252685546875
-0.02728271484375
-0.027099609375
-0.028747558593750003
-0.032958984375
-0.03424072265625
-0.031494140625
-0.02984619140625
-0.029663085937500003
-0.023437499999999997
-0.01922607421875
-0.01812744140625
-0.013366699218749998
-0.00787353515625
-0.0087890625
-0.01007080078125
-0.009704589843749998
-0.008422851562499998
-0.00714111328125
-0.0047607421875
-0.0007324218749999999
-0.0020141601562499996
-0.0032958984375
0.00036621093749999995
0.0012817382812499998
0.00054931640625
-0.00018310546874999997
-0.0014648437499999998
-0.003662109375
-0.004943847656249999
-0.0007324218749999999
0.00439453125
0.006042480468749999
0.00567626953125
0.0062255859375
0.0029296874999999996
0.005126953124999999
0.01190185546875
0.018493652343749997
0.02252197265625
0.02471923828125
0.02655029296875
0.028015136718749997
0.030029296874999997
0.03607177734375
0.04083251953124999
0.04376220703125
0.04779052734374999
0.04870605468749999
0.04907226562499999
0.0498046875
0.05566406249999999
0.05932617187500001
0.06298828125
0.06060791015625
0.05877685546875
0.05822753906249999
0.05749511718750001
0.05383300781249999
0.04705810546874999
0.04101562499999999
0.03369140624999999
0.026916503906249997
0.0274658203125
0.02618408203125
0.02105712890625
0.01556396484375
0.01007080078125
0.0062255859375
0.006958007812499999
0.010253906249999998
0.0113525390625
0.00860595703125
0.0087890625
0.00787353515625
0.01190185546875
0.016845703124999997
0.015930175781249997
0.013366699218749998
0.00933837890625
0.008422851562499998
0.00732421875
0.004943847656249999
0.00238037109375
0.00238037109375
0.00457763671875
0.00311279296875
0.0014648437499999998
-0.00164794921875
-0.00238037109375
-0.0025634765624999996
-0.00274658203125
-0.0025634765624999996
-0.002197265625
-0.0020141601562499996
-0.00036621093749999995
0.002197265625
0.0025634765624999996
-0.00018310546874999997
-0.0029296874999999996
-0.00311279296875
-0.0029296874999999996
0.0007324218749999999
0.00677490234375
0.010253906249999998
0.01629638671875
0.03881835937499999
0.072509765625
0.1259765625
0.19647216796875
0.279052734375
0.3870849609375
0.5216674804687499
0.6448974609374999
0.7510986328125
0.8199462890625
0.8673706054687499
0.885498046875
0.831298828125
0.7060546875
0.47680664062499994
0.15948486328124997
-0.1622314453125
-0.368408203125
-0.46307373046874994
-0.51654052734375
-0.5474853515625
-0.5445556640624999
-0.5152587890624999
-0.48120117187499994
-0.44549560546874994
-0.4017333984375
-0.33819580078124994
-0.275390625
-0.216796875
-0.15838623046875
-0.10491943359374999
-0.06060791015625
-0.035888671875
-0.0223388671875
-0.01300048828125
-0.01116943359375
-0.01318359375
-0.01904296875
-0.0201416015625
-0.01776123046875
-0.016113281249999997
-0.015380859375
-0.014099121093749998
-0.01300048828125
-0.0106201171875
-0.009887695312499998
-0.009521484375
-0.005126953124999999
-0.0020141601562499996
-0.00054931640625
-0.00054931640625
0.00457763671875
0.010253906249999998
0.015197753906249998
0.01373291015625
0.0076904296875
0.00531005859375
0.006958007812499999
0.01007080078125
0.01190185546875
0.011535644531249998
0.00933837890625
0.010986328125
0.012268066406249998
0.01318359375
0.01666259765625
0.02655029296875
0.03314208984374999
0.03881835937499999
0.03881835937499999
0.03387451171875
0.026916503906249997
0.0216064453125
0.020874023437499997
0.024169921874999997
0.03131103515625
0.04101562499999999
0.04687499999999999
0.04833984374999999
0.0494384765625
0.0545654296875
0.05657958984374999
0.05639648437499999
0.05987548828124999
0.0640869140625
0.069580078125
0.07159423828125
0.0706787109375
0.0736083984375
0.07653808593749999
0.07653808593749999
0.072509765625
0.0703125
0.0703125
0.07763671874999999
0.08697509765625
0.08953857421874999
0.08935546875
0.08917236328124999
0.0919189453125
0.09869384765624999
0.1083984375
0.11517333984374999
0.11810302734375
0.1190185546875
0.12213134765625
0.122314453125
0.11975097656249999
0.11883544921874999
0.12249755859374999
0.12579345703125
0.129638671875
0.1351318359375
0.1446533203125
0.15142822265625
0.15655517578125
0.15802001953124997
0.15802001953124997
0.15728759765625
0.15106201171875
0.148681640625
0.15051269531249997
0.15985107421875
0.17523193359375
0.18365478515624997
0.1878662109375
0.18621826171874997
0.18457031249999997
0.18090820312499997
0.17596435546874997
0.17321777343749997
0.173583984375
0.1688232421875
0.16333007812499997
0.150146484375
0.13714599609375
0.13018798828124997
0.1270751953125
0.12487792968749999
0.11773681640625
0.11151123046874999
0.10455322265624999
0.08880615234375
0.076171875
0.06005859374999999
0.03955078124999999
0.019409179687499997
-0.00091552734375
-0.019409179687499997
-0.03131103515625
-0.04486083984375
-0.06097412109374999
-0.06976318359375
-0.07379150390624999
-0.0787353515625
-0.09283447265625
-0.1080322265625
-0.12011718749999999
-0.12890624999999997
-0.136962890625
-0.14208984375
-0.14739990234375
-0.1549072265625
-0.1611328125
-0.16497802734375
-0.1556396484375
-0.15582275390625
-0.1563720703125
-0.15399169921874997
-0.15124511718749997
-0.1563720703125
-0.16131591796875
-0.16699218749999997
-0.1658935546875
-0.16259765624999997
-0.15802001953124997
-0.14593505859375
-0.147216796875
-0.15142822265625
-0.1556396484375
-0.15399169921874997
-0.15380859375
-0.15380859375
-0.1527099609375
-0.148681640625
-0.14172363281249997
-0.12945556640625
-0.12268066406249999
-0.12268066406249999
-0.1256103515625
-0.128173828125
-0.12945556640625
-0.12890624999999997
-0.12872314453125
-0.12414550781250001
-0.11865234375000001
-0.11260986328125
-0.10968017578125
-0.1029052734375
-0.09503173828125
-0.0908203125
-0.08953857421874999
-0.091552734375
-0.09741210937499999
-0.10382080078124999
-0.10382080078124999
-0.10455322265624999
-0.10052490234374999
-0.09558105468749999
-0.09374999999999999
-0.09411621093749999
-0.0926513671875
-0.08843994140624999
-0.07928466796875
-0.07049560546875
-0.0721435546875
-0.07489013671874999
-0.07672119140625
-0.08111572265625
-0.08807373046875
-0.08843994140624999
-0.0849609375
-0.07910156249999999
-0.07397460937499999
-0.0692138671875
-0.06738281249999999
-0.0640869140625
-0.05932617187500001
-0.0633544921875
-0.07415771484375
-0.07635498046875
-0.0714111328125
-0.06243896484374999
-0.0626220703125
-0.0626220703125
-0.06628417968749999
-0.06738281249999999
-0.06903076171875
-0.06573486328125
-0.06390380859375
-0.066650390625
-0.07177734375
-0.07177734375
-0.06738281249999999
-0.06683349609375
-0.07177734375
-0.069580078125
-0.06536865234375
-0.0633544921875
-0.06555175781249999
-0.06005859374999999
-0.05859375
-0.05474853515624999
-0.050537109375
-0.05145263671875
-0.05291748046875
-0.04614257812499999
-0.0428466796875
-0.04632568359375
-0.04907226562499999
-0.04852294921875
-0.0435791015625
-0.03570556640625
-0.03277587890624999
-0.0333251953125
-0.03515625
-0.0399169921875
-0.04541015625
-0.05145263671875
-0.0531005859375
-0.04833984374999999
-0.04083251953124999
-0.0384521484375
-0.0435791015625
-0.04998779296875
-0.05035400390625
-0.04229736328125
-0.0355224609375
-0.0399169921875
-0.04449462890625
-0.04687499999999999
-0.04376220703125
-0.04650878906249999
-0.04852294921875
-0.04595947265625
-0.04248046875
-0.04119873046875
-0.04010009765624999
-0.03900146484375
-0.0355224609375
-0.027099609375
-0.025634765625
-0.03369140624999999
-0.03662109375
-0.034423828125
-0.026733398437499997
-0.02288818359375
-0.0216064453125
-0.027648925781249997
-0.03717041015625
-0.04248046875
-0.0439453125
-0.03533935546875
-0.013366699218749998
-0.00164794921875
-0.00164794921875
-0.006591796875
-0.0007324218749999999
0.0135498046875
0.020507812499999997
0.017578125
0.021240234375
0.0252685546875
0.029663085937500003
0.020690917968749997
0.011535644531249998
0.006591796875
0.01373291015625
0.02288818359375
0.04302978515625
0.054931640625
0.05383300781249999
0.04522705078124999
0.030395507812499997
0.01885986328125
0.0054931640625
-0.0029296874999999996
-0.009887695312499998
-0.0106201171875
-0.007598876953124999
0.004943847656249999
0.0157470703125
0.020874023437499997
0.0146484375
-0.0010986328125
-0.008056640624999998
-0.0172119140625
-0.018310546875
-0.016845703124999997
-0.0146484375
-0.0142822265625
-0.0142822265625
-0.011718749999999998
-0.010986328125
-0.00714111328125
0.0018310546875
-0.0062255859375
-0.019775390624999997
-0.023986816406249997
-0.01629638671875
-0.01446533203125
-0.020690917968749997
-0.022155761718749997
-0.022155761718749997
-0.0186767578125
-0.0157470703125
-0.020690917968749997
-0.0238037109375
-0.02105712890625
-0.02490234375
-0.028747558593750003
-0.028564453125
-0.02362060546875
-0.020690917968749997
-0.015380859375
-0.008056640624999998
-0.006591796875
-0.0087890625
-0.00164794921875
0.006042480468749999
0.028747558593750003
0.06628417968749999
0.11865234375000001
0.20068359375
0.29296875
0.40228271484374994
0.5436401367187499
0.6697998046875
0.7745361328125
0.8591308593749999
0.9136962890625
0.9316406249999999
0.8389892578124999
0.6793212890625
0.43414306640625
0.09539794921875
-0.24481201171874994
-0.43542480468749994
-0.53466796875
-0.6009521484374999
-0.64727783203125
-0.6447143554687499
-0.5943603515625
-0.54217529296875
-0.503173828125
-0.46618652343749994
-0.4248046875
-0.36053466796875
-0.27850341796875
-0.2054443359375
-0.14923095703125
-0.09942626953124999
-0.06298828125
-0.03955078124999999
-0.02508544921875
-0.02490234375
-0.0347900390625
-0.03662109375
-0.0289306640625
-0.019775390624999997
-0.009887695312499998
-0.0029296874999999996
0.009521484375
0.0135498046875
0.01263427734375
0.012451171875
0.0252685546875
0.03515625
0.0325927734375
0.03405761718749999
0.02947998046875
0.02508544921875
0.024169921874999997
0.025817871093749997
0.027099609375
0.03240966796875
0.040283203125
0.04705810546874999
0.0498046875
0.05639648437499999
0.05529785156249999
0.0494842529296875
0.0435791015625
0.04229736328125
0.0494384765625
0.054931640625
0.05419921875
0.05383300781249999
0.0589599609375
0.0567626953125
0.0531005859375
0.05804443359375
0.0677490234375
0.07708740234375
0.0743408203125
0.07781982421875
0.08312988281249999
0.0837249755859375
0.07836914062499999
0.075439453125
0.08056640625
0.0838623046875
0.0849609375
0.08770751953124999
0.09411621093749999
0.09796142578125
0.09576416015625
0.08917236328124999
0.0882568359375
0.09228515624999999
0.10198974609374999
0.10784912109375
0.11206054687499999
0.11828613281249999
0.12396240234375001
0.13330078125
0.14556884765625
0.1494140625
0.147216796875
0.1431884765625
0.142822265625
0.140625
0.14666748046874997
0.156005859375
0.16204833984375
0.16552734374999997
0.17138671875
0.17376708984375
0.17742919921875
0.17889404296875
0.18017578125
0.1904296875
0.19647216796875
0.20306396484375
0.20745849609374997
0.20892333984374997
0.2105712890625
0.2109375
0.21295166015625
0.2149658203125
0.22119140624999997
0.2252197265625
0.228515625
0.23107910156249997
0.23345947265625
0.2354736328125
0.24224853515625
0.24536132812499997
0.23858642578125
0.23016357421874997
0.2252197265625
0.22412109374999997
0.22320556640625
0.216796875
0.20654296874999997
0.1929931640625
0.18768310546875
0.18255615234375
0.17834472656249997
0.1710205078125
0.15472412109375
0.1380615234375
0.119384765625
0.0999755859375
0.07781982421875
0.06097412109374999
0.04797363281249999
0.03424072265625
0.0179443359375
0.0032958984375
-0.0062255859375
-0.018310546875
-0.03424072265625
-0.0472412109375
-0.05731201171874999
-0.07049560546875
-0.08642578125
-0.08587646484374999
-0.0897216796875
-0.10015869140625
-0.11224365234375
-0.125244140625
-0.1318359375
-0.13256835937499997
-0.1343994140625
-0.13751220703124997
-0.1409912109375
-0.1358642578125
-0.135498046875
-0.14117431640624997
-0.14794921874999997
-0.14996337890625
-0.1483154296875
-0.14593505859375
-0.14666748046874997
-0.14538574218749997
-0.13916015625
-0.1285400390625
-0.12341308593749999
-0.1212158203125
-0.12414550781250001
-0.126708984375
-0.12799072265625
-0.12542724609375
-0.123046875
-0.12359619140625
-0.12176513671875
-0.117919921875
-0.11242675781249999
-0.10931396484375
-0.10821533203125
-0.1083984375
-0.1065673828125
-0.10015869140625
-0.08935546875
-0.08111572265625
-0.0787353515625
-0.08056640625
-0.087890625
-0.09246826171875
-0.08807373046875
-0.08020019531249999
-0.0728759765625
-0.06628417968749999
-0.06298828125
-0.06591796875
-0.06445312499999999
-0.061889648437499986
-0.06134033203124999
-0.06298828125
-0.0633544921875
-0.05982971191406249
-0.0589599609375
-0.0589599609375
-0.061889648437499986
-0.06500244140625
-0.0648193359375
-0.06060791015625
-0.05529785156249999
-0.05438232421874999
-0.05419921875
-0.05859375
-0.06079101562499999
-0.0615234375
-0.0604248046875
-0.05767822265625
-0.05603027343749999
-0.05126953125
-0.04779052734374999
-0.04248046875
-0.04632568359375
-0.0450439453125
-0.044677734375
-0.0472412109375
-0.04797363281249999
-0.04815673828125
-0.04888916015624999
-0.04870605468749999
-0.04907226562499999
-0.04541015625
-0.04486083984375
-0.0457763671875
-0.0509033203125
-0.04870605468749999
-0.04870605468749999
-0.04852294921875
-0.04595947265625
-0.04229736328125
-0.04101562499999999
-0.04083251953124999
-0.0380859375
-0.0384521484375
-0.04229736328125
-0.04376220703125
-0.043212890625
-0.044677734375
-0.04595947265625
-0.04852294921875
-0.05072021484375
-0.050537109375
-0.05548095703125
-0.0567626953125
-0.0523681640625
-0.04559326171874999
-0.03900146484375
-0.03570556640625
-0.03350830078124999
-0.03405761718749999
-0.03643798828125
-0.03515625
-0.03424072265625
-0.0311279296875
-0.024169921874999997
-0.020324707031249997
-0.0172119140625
-0.0164794921875
-0.0146484375
-0.01739501953125
-0.02197265625
-0.031494140625
-0.03369140624999999
-0.028015136718749997
-0.01904296875
-0.015014648437499998
-0.014831542968750002
-0.009704589843749998
-0.010437011718749998
-0.01318359375
-0.017578125
-0.01318359375
-0.0062255859375
-0.00091552734375
0.0010986328125
0.0029296874999999996
0.0014648437499999998
0.004028320312499999
0.00640869140625
0.005859374999999999
0.0047607421875
0.0062255859375
0.00714111328125
0.01318359375
0.0164794921875
0.01904296875
0.023986816406249997
0.0252685546875
0.029296875
0.03076171875
0.0355224609375
0.0333251953125
0.02618408203125
0.018493652343749997
0.0146484375
0.01080322265625
0.00677490234375
0.0014648437499999998
-0.003662109375
-0.0032958984375
-0.0020141601562499996
-0.0025634765624999996
-0.00732421875
-0.012268066406249998
-0.015197753906249998
-0.01629638671875
-0.0179443359375
-0.0186767578125
-0.0172119140625
-0.010253906249999998
-0.005859374999999999
-0.006958007812499999
-0.00823974609375
-0.009887695312499998
-0.010253906249999998
-0.0113525390625
-0.0186767578125
-0.022705078125
-0.019775390624999997
-0.0164794921875
-0.016113281249999997
-0.018310546875
-0.01812744140625
-0.019409179687499997
-0.018310546875
-0.01739501953125
-0.01885986328125
-0.020507812499999997
-0.0201416015625
-0.017578125
-0.016845703124999997
-0.017578125
-0.017028808593749997
-0.017028808593749997
-0.01666259765625
-0.016845703124999997
-0.0106201171875
-0.003662109375
0.00677490234375
0.027832031249999997
0.06280517578125
0.11206054687499999
0.1871337890625
0.27484130859375
0.38397216796874994
0.526611328125
0.6621093749999999
0.7822265624999999
0.87432861328125
0.93017578125
0.9609374999999999
0.89794921875
0.76043701171875
0.5452880859375
0.2314453125
-0.11627197265625
-0.35577392578125
-0.4775390625
-0.5531616210937499
-0.602783203125
-0.6156005859374999
-0.5811767578124999
-0.53173828125
-0.4896240234374999
-0.44952392578125
-0.40447998046875
-0.34259033203125
-0.27630615234375
-0.21276855468749997
-0.15582275390625
-0.1083984375
-0.07196044921874999
-0.04998779296875
-0.03881835937499999
-0.0355224609375
-0.03698730468749999
-0.03973388671874999
-0.03881835937499999
-0.03698730468749999
-0.032958984375
-0.029663085937500003
-0.025634765625
-0.024353027343749997
-0.0186767578125
-0.0135498046875
-0.0076904296875
-0.0029296874999999996
-0.00054931640625
0.0032958984375
0.0076904296875
0.012268066406249998
0.016113281249999997
0.01922607421875
0.020690917968749997
0.02252197265625
0.0216064453125
0.02362060546875
0.023071289062499997
0.023071289062499997
0.0260009765625
0.03131103515625
0.03369140624999999
0.03497314453125
0.03973388671874999
0.04486083984375
0.04669189453125
0.0498046875
0.0523681640625
0.05822753906249999
0.06079101562499999
0.06372070312499999
0.06591796875
0.06738281249999999
0.0699462890625
0.07269287109374999
0.0743408203125
0.07672119140625
0.07672119140625
0.07891845703125
0.07946777343749999
0.08020019531249999
0.08441162109375
0.0867919921875
0.087158203125
0.08734130859374999
0.08953857421874999
0.09411621093749999
0.09484863281249999
0.09558105468749999
0.09759521484375
0.10125732421874999
0.10766601562499999
0.10876464843749999
0.11334228515624999
0.11993408203125
0.1190185546875
0.12377929687499997
0.12542724609375
0.1263427734375
0.13092041015625
0.13458251953125
0.13824462890625
0.14208984375
0.14813232421875
0.1494140625
0.15399169921874997
0.15820312499999997
0.16406249999999997
0.16754150390625
0.16827392578124997
0.1728515625
0.1787109375
0.17980957031249997
0.18090820312499997
0.18328857421874997
0.18749999999999997
0.18988037109374997
0.1929931640625
0.19537353515625
0.1966552734375
0.201416015625
0.202880859375
0.2032470703125
0.20123291015624997
0.20068359375
0.1981201171875
0.19610595703124997
0.18969726562499997
0.1856689453125
0.18255615234375
0.17999267578125
0.17724609374999997
0.173583984375
0.16607666015625
0.1611328125
0.15435791015624997
0.14666748046874997
0.13677978515625
0.12542724609375
0.1109619140625
0.09558105468749999
0.08093261718749999
0.06555175781249999
0.04522705078124999
0.030395507812499997
0.015014648437499998
-0.00091552734375
-0.0157470703125
-0.03167724609375
-0.04449462890625
-0.05841064453125001
-0.0736083984375
-0.08807373046875
-0.1014404296875
-0.11334228515624999
-0.123046875
-0.1314697265625
-0.13568115234375
-0.13861083984375
-0.14501953125
-0.14959716796875
-0.15399169921874997
-0.1593017578125
-0.16040039062499997
-0.16351318359375
-0.16571044921875
-0.17010498046875
-0.172119140625
-0.1728515625
-0.17083740234374997
-0.16552734374999997
-0.16406249999999997
-0.1651611328125
-0.16278076171875
-0.16131591796875
-0.15966796875
-0.156005859375
-0.1549072265625
-0.15362548828125
-0.15216064453125
-0.14904785156249997
-0.145751953125
-0.1446533203125
-0.14538574218749997
-0.14208984375
-0.14208984375
-0.144287109375
-0.1380615234375
-0.13421630859375003
-0.1292724609375
-0.12689208984375
-0.12194824218749999
-0.1204833984375
-0.11773681640625
-0.11737060546874999
-0.11810302734375
-0.1171875
-0.11279296874999999
-0.10968017578125
-0.1029052734375
-0.0970458984375
-0.09613037109375
-0.09814453124999999
-0.09851074218749999
-0.09722900390625
-0.09558105468749999
-0.09301757812499999
-0.087890625
-0.0853271484375
-0.0849609375
-0.0849609375
-0.08258056640625
-0.07836914062499999
-0.07635498046875
-0.0732421875
-0.06884765625
-0.06610107421875
-0.06628417968749999
-0.06683349609375
-0.06738281249999999
-0.06445312499999999
-0.0633544921875
-0.06573486328125
-0.06738281249999999
-0.06500244140625
-0.06445312499999999
-0.06317138671875
-0.06555175781249999
-0.0648193359375
-0.06134033203124999
-0.0604248046875
-0.05987548828124999
-0.05950927734375
-0.05859375
-0.0531005859375
-0.0523681640625
-0.05364990234375
-0.05346679687499999
-0.05529785156249999
-0.05181884765625
-0.0494384765625
-0.04815673828125
-0.04779052734374999
-0.0457763671875
-0.04486083984375
-0.04376220703125
-0.04339599609375
-0.04266357421875
-0.04431152343749999
-0.04650878906249999
-0.04541015625
-0.04431152343749999
-0.0450439453125
-0.04376220703125
-0.04156494140624999
-0.0435791015625
-0.047607421875
-0.0457763671875
-0.04779052734374999
-0.0509033203125
-0.05218505859375
-0.050537109375
-0.04815673828125
-0.04797363281249999
-0.04870605468749999
-0.04650878906249999
-0.0439453125
-0.04138183593749999
-0.03717041015625
-0.0325927734375
-0.03222656249999999
-0.03369140624999999
-0.03204345703125
-0.03076171875
-0.03076171875
-0.030029296874999997
-0.028564453125
-0.0289306640625
-0.027099609375
-0.024169921874999997
-0.0223388671875
-0.02105712890625
-0.021240234375
-0.02178955078125
-0.02178955078125
-0.0216064453125
-0.0201416015625
-0.0128173828125
-0.00640869140625
-0.01190185546875
-0.0164794921875
-0.018310546875
-0.0164794921875
-0.0146484375
-0.0135498046875
-0.00677490234375
-0.0025634765624999996
0.00036621093749999995
0.00091552734375
0.00732421875
0.0142822265625
0.01885986328125
0.021240234375
0.0223388671875
0.02252197265625
0.021240234375
0.019409179687499997
0.02178955078125
0.0252685546875
0.028747558593750003
0.029113769531249997
0.02838134765625
0.03204345703125
0.03167724609375
0.028198242187499997
0.020874023437499997
0.015380859375
0.010253906249999998
0.009704589843749998
0.009704589843749998
0.00787353515625
0.00860595703125
0.0054931640625
-0.0012817382812499998
-0.007507324218749999
-0.008056640624999998
-0.00897216796875
-0.006958007812499999
-0.005126953124999999
-0.0029296874999999996
-0.0047607421875
-0.0025634765624999996
0.0020141601562499996
0.0025634765624999996
0.00274658203125
-0.00274658203125
-0.0018310546875
-0.0020141601562499996
-0.003662109375
-0.0054931640625
-0.009704589843749998
-0.0106201171875
-0.010986328125
-0.009887695312499998
-0.01007080078125
-0.012451171875
-0.01373291015625
-0.0146484375
-0.013916015624999998
-0.014099121093749998
-0.015380859375
-0.01776123046875
-0.014099121093749998
-0.01318359375
-0.014099121093749998
-0.0128173828125
-0.0106201171875
-0.006958007812499999
-0.0025634765624999996
0.0026092529296874996
0.013916015624999998
0.03698730468749999
0.0714111328125
0.12652587890625
0.202880859375
0.28912353515625
0.40191650390625
0.5401611328125
0.67529296875
0.791748046875
0.875244140625
0.9331054687499999
0.978515625
0.9598388671875
0.84613037109375
0.6187133789062499
0.30249023437499994
-0.03515625
-0.2720947265625
-0.383056640625
-0.45336914062499994
-0.4984130859375
-0.5139770507812501
-0.498046875
-0.46838378906249994
-0.42901611328125
-0.37353515625
-0.31201171875
-0.2490234375
-0.1893310546875
-0.13110351562499997
-0.084228515625
-0.05401611328125
-0.04156494140624999
-0.03698730468749999
-0.03826904296874999
-0.0384521484375
-0.037353515625
-0.03497314453125
-0.034423828125
-0.03222656249999999
-0.02838134765625
-0.0260009765625
-0.02252197265625
-0.016845703124999997
-0.012084960937499998
-0.008056640624999998
-0.006591796875
-0.0025634765624999996
0.0032958984375
0.00439453125
0.0091552734375
0.010253906249999998
0.013366699218749998
0.01318359375
0.016845703124999997
0.018310546875
0.01885986328125
0.019592285156249997
0.0216064453125
0.02178955078125
0.02178955078125
0.0201416015625
0.026916503906249997
0.0274658203125
0.026733398437499997
0.02947998046875
0.03314208984374999
0.034423828125
0.03369140624999999
0.04119873046875
0.04522705078124999
0.044677734375
0.044677734375
0.04870605468749999
0.04962158203125
0.05126953125
0.05255126953124999
0.05181884765625
0.05181884765625
0.05126953125
0.052001953125
0.05438232421874999
0.05859375
0.061889648437499986
0.06390380859375
0.06500244140625
0.0648193359375
0.06811523437499999
0.07177734375
0.07470703125
0.079833984375
0.08312988281249999
0.08184814453125
0.08697509765625
0.0889892578125
0.09558105468749999
0.1007080078125
0.1021728515625
0.1058349609375
0.11187744140625
0.11773681640625
0.12377929687499997
0.122314453125
0.12322998046875001
0.12725830078125
0.12890624999999997
0.12890624999999997
0.1318359375
0.142822265625
0.15051269531249997
0.15069580078125
0.1534423828125
0.15765380859374997
0.1600341796875
0.16424560546875
0.1666259765625
0.169189453125
0.175048828125
0.17687988281249997
0.18054199218749997
0.18548583984374997
0.1900634765625
0.19427490234375
0.1904296875
0.18914794921874997
0.19171142578125
0.19372558593749997
0.1893310546875
0.1864013671875
0.18182373046874997
0.18072509765625
0.18182373046874997
0.1776123046875
0.1724853515625
0.16497802734375
0.15692138671874997
0.14666748046874997
0.139892578125
0.13018798828124997
0.11553955078124999
0.101806640625
0.08953857421874999
0.07177734375
0.05712890625
0.04431152343749999
0.03222656249999999
0.0146484375
-0.0029296874999999996
-0.019409179687499997
-0.03186035156249999
-0.04431152343749999
-0.0545654296875
-0.06298828125
-0.07452392578124999
-0.0882568359375
-0.1014404296875
-0.10858154296875
-0.11389160156249999
-0.120849609375
-0.1278076171875
-0.12982177734375
-0.1314697265625
-0.1358642578125
-0.141357421875
-0.14208984375
-0.14172363281249997
-0.14520263671874997
-0.15069580078125
-0.15472412109375
-0.15362548828125
-0.156005859375
-0.1578369140625
-0.1556396484375
-0.154541015625
-0.1534423828125
-0.15399169921874997
-0.1556396484375
-0.14978027343749997
-0.14538574218749997
-0.14245605468749997
-0.1380615234375
-0.13476562499999997
-0.1351318359375
-0.13659667968749997
-0.13458251953125
-0.13641357421875
-0.13659667968749997
-0.13458251953125
-0.1339874267578125
-0.13330078125
-0.129638671875
-0.12872314453125
-0.129638671875
-0.12744140624999997
-0.12414550781250001
-0.12158203124999999
-0.1171875
-0.113525390625
-0.11279296874999999
-0.11517333984374999
-0.11846923828124999
-0.11444091796875
-0.10491943359374999
-0.1007080078125
-0.0999755859375
-0.10162353515625
-0.1021728515625
-0.10015869140625
-0.09777832031249999
-0.09649658203125
-0.098876953125
-0.0963134765625
-0.09429931640625
-0.09320068359375
-0.09136962890625
-0.090087890625
-0.08697509765625
-0.08917236328124999
-0.087158203125
-0.0853271484375
-0.07818603515625
-0.076171875
-0.0780029296875
-0.07818603515625
-0.07818603515625
-0.0780029296875
-0.076171875
-0.07562255859374999
-0.0732421875
-0.07177734375
-0.0703125
-0.0714111328125
-0.07049560546875
-0.069580078125
-0.07177734375
-0.07452392578124999
-0.07562255859374999
-0.07342529296875
-0.07012939453124999
-0.06646728515625
-0.06573486328125
-0.06701660156249999
-0.066650390625
-0.06884765625
-0.065185546875
-0.06005859374999999
-0.05767822265625
-0.05566406249999999
-0.05328369140625
-0.05126953125
-0.05364990234375
-0.05822753906249999
-0.057861328125
-0.05163574218749999
-0.05255126953124999
-0.05126953125
-0.05163574218749999
-0.0498046875
-0.04669189453125
-0.04486083984375
-0.04852294921875
-0.047607421875
-0.04687499999999999
-0.04486083984375
-0.0450439453125
-0.0421142578125
-0.04815673828125
-0.04870605468749999
-0.0457763671875
-0.04541015625
-0.04650878906249999
-0.04174804687499999
-0.04101562499999999
-0.04010009765624999
-0.03881835937499999
-0.03790283203124999
-0.04064941406249999
-0.04156494140624999
-0.040283203125
-0.03881835937499999
-0.03955078124999999
-0.03826904296874999
-0.03369140624999999
-0.03424072265625
-0.03369140624999999
-0.03369140624999999
-0.0325927734375
-0.029663085937500003
-0.029663085937500003
-0.03186035156249999
-0.0325927734375
-0.034423828125
-0.0380859375
-0.03955078124999999
-0.0377197265625
-0.030944824218749993
-0.024536132812499997
-0.02252197265625
-0.017578125
-0.0135498046875
-0.0029296874999999996
-0.002197265625
0.0029296874999999996
0.0062255859375
0.008056640624999998
0.00732421875
0.0054931640625
0.00714111328125
0.0106201171875
0.018493652343749997
0.024353027343749997
0.02947998046875
0.03204345703125
0.030029296874999997
0.028564453125
0.02197265625
0.016845703124999997
0.012084960937499998
0.0076904296875
0.0047607421875
0.0014648437499999998
0.0020141601562499996
0.0025634765624999996
-0.0029296874999999996
-0.010253906249999998
-0.015380859375
-0.017028808593749997
-0.016845703124999997
-0.012268066406249998
-0.00860595703125
-0.0087890625
-0.00860595703125
-0.009887695312499998
-0.010986328125
-0.015014648437499998
-0.01812744140625
-0.01739501953125
-0.015014648437499998
-0.0128173828125
-0.011535644531249998
-0.01263427734375
-0.012451171875
-0.011718749999999998
-0.0128173828125
-0.01190185546875
-0.01446533203125
-0.01739501953125
-0.01629638671875
-0.0113525390625
-0.013916015624999998
-0.015380859375
-0.0157470703125
-0.01739501953125
-0.018310546875
-0.0146484375
-0.01373291015625
-0.015380859375
-0.018310546875
-0.0186767578125
-0.0128173828125
-0.00823974609375
-0.00036621093749999995
0.0157470703125
0.0439453125
0.0889892578125
0.15820312499999997
0.23968505859375
0.34167480468749994
0.47351074218749994
0.6134033203125
0.7419433593749999
0.8393554687499999
0.9016113281249999
0.9477539062499999
0.963134765625
0.88677978515625
0.70843505859375
0.42333984375
0.07855224609375
-0.21185302734375
-0.3516998291015625
-0.43212890625
-0.48358154296874994
-0.51434326171875
-0.5117340087890625
-0.4892578125
-0.456298828125
-0.4090576171875
-0.34826660156249994
-0.28436279296875
-0.22100830078125
-0.16314697265624997
-0.11499023437500001
-0.079833984375
-0.06207275390625001
-0.05914306640624999
-0.05529785156249999
-0.05529785156249999
-0.05346679687499999
-0.05218505859375
-0.0498046875
-0.05126953125
-0.04870605468749999
-0.0472412109375
-0.04302978515625
-0.03900146484375
-0.0377197265625
-0.03350830078124999
-0.034423828125
-0.0347900390625
-0.030944824218749993
-0.025634765625
-0.02490234375
-0.02197265625
-0.020874023437499997
-0.015930175781249997
-0.014831542968750002
-0.017578125
-0.019775390624999997
-0.019409179687499997
-0.015380859375
-0.01007080078125
-0.006591796875
-0.00439453125
-0.0034790039062499996
-0.0010986328125
0.00164794921875
0.00311279296875
0.0062255859375
0.0054931640625
0.006591796875
0.0025634765624999996
0.008056640624999998
0.012084960937499998
0.011535644531249998
0.016113281249999997
0.01995849609375
0.020690917968749997
0.022705078125
0.025817871093749997
0.029296875
0.031494140625
0.03662109375
0.0377197265625
0.04174804687499999
0.04412841796875
0.0457763671875
0.04797363281249999
0.04925537109374999
0.052734375
0.05364990234375
0.05694580078124999
0.05950927734375
0.0626220703125
0.06756591796875
0.072509765625
0.07470703125
0.07836914062499999
0.07855224609375
0.07525634765624999
0.0780029296875
0.085693359375
0.09173583984375
0.0992431640625
0.1072998046875
0.10949707031249999
0.11187744140625
0.11444091796875
0.1175537109375
0.12011718749999999
0.12945556640625
0.13531494140624997
0.1409912109375
0.14794921874999997
0.154541015625
0.15820312499999997
0.15875244140625
0.1636962890625
0.172119140625
0.17926025390625
0.1842041015625
0.18951416015625
0.1915283203125
0.1951904296875
0.19775390625
0.19757080078124997
0.1944580078125
0.1951904296875
0.1929931640625
0.1922607421875
0.1893310546875
0.18914794921874997
0.1885986328125
0.18475341796874997
0.17999267578125
0.17578125
0.16973876953125
0.16186523437499997
0.15124511718749997
0.14227294921875
0.1307373046875
0.11975097656249999
0.1043701171875
0.0908203125
0.07818603515625
0.0640869140625
0.04833984374999999
0.0311279296875
0.0201416015625
0.009521484375
-0.0034790039062499996
-0.015014648437499998
-0.02508544921875
-0.03698730468749999
-0.050537109375
-0.06243896484374999
-0.07452392578124999
-0.0853271484375
-0.09503173828125
-0.1043701171875
-0.11004638671875
-0.11737060546874999
-0.1256103515625
-0.1314697265625
-0.135498046875
-0.1376953125
-0.14208984375
-0.14630126953125
-0.146484375
-0.14886474609374997
-0.15032958984374997
-0.15252685546874997
-0.15087890625
-0.1534423828125
-0.156005859375
-0.1600341796875
-0.16021728515625
-0.1585693359375
-0.15820312499999997
-0.156005859375
-0.1541748046875
-0.1521148681640625
-0.15032958984374997
-0.14758300781249997
-0.1494140625
-0.14923095703125
-0.14904785156249997
-0.1468505859375
-0.1416778564453125
-0.138427734375
-0.13494873046875
-0.1322021484375
-0.12982177734375
-0.12744140624999997
-0.126708984375
-0.12835693359374997
-0.12341308593749999
-0.117919921875
-0.11499023437500001
-0.11224365234375
-0.11132812499999999
-0.10931396484375
-0.10784912109375
-0.1025390625
-0.0963134765625
-0.0919189453125
-0.0860595703125
-0.084228515625
-0.08551025390625
-0.08020019531249999
-0.076171875
-0.07397460937499999
-0.07415771484375
-0.07470703125
-0.076904296875
-0.08312988281249999
-0.08111572265625
-0.07489013671874999
-0.0677490234375
-0.0604248046875
-0.06024169921875
-0.06445312499999999
-0.066650390625
-0.065185546875
-0.06298828125
-0.06353759765625
-0.061889648437499986
-0.061889648437499986
-0.05822753906249999
-0.05712890625
-0.0626220703125
-0.06243896484374999
-0.06097412109374999
-0.0589599609375
-0.061889648437499986
-0.06298828125
-0.06591796875
-0.06646728515625
-0.061889648437499986
-0.05511474609374999
-0.04614257812499999
-0.04119873046875
-0.04248046875
-0.04431152343749999
-0.04632568359375
-0.0498046875
-0.04669189453125
-0.04248046875
-0.0435791015625
-0.04559326171874999
-0.047607421875
-0.04632568359375
-0.04174804687499999
-0.04101562499999999
-0.04101562499999999
-0.04010009765624999
-0.0377197265625
-0.0333251953125
-0.03369140624999999
-0.035888671875
-0.03900146484375
-0.03900146484375
-0.04010009765624999
-0.0439453125
-0.0399169921875
-0.029663085937500003
-0.02728271484375
-0.027648925781249997
-0.029663085937500003
-0.03643798828125
-0.0362548828125
-0.029296875
-0.023437499999999997
-0.023437499999999997
-0.0263671875
-0.028198242187499997
-0.026916503906249997
-0.024353027343749997
-0.026733398437499997
-0.028198242187499997
-0.027832031249999997
-0.029296875
-0.03460693359375
-0.03511047363281249
-0.0355224609375
-0.03533935546875
-0.030395507812499997
-0.022155761718749997
-0.02197265625
-0.0260009765625
-0.03057861328125
-0.03387451171875
-0.03460693359375
-0.0362548828125
-0.03204345703125
-0.028015136718749997
-0.0252685546875
-0.024536132812499997
-0.0252685546875
-0.03076171875
-0.0333251953125
-0.0325927734375
-0.0347900390625
-0.03662109375
-0.0333251953125
-0.024169921874999997
-0.01739501953125
-0.017028808593749997
-0.015014648437499998
-0.015930175781249997
-0.014831542968750002
-0.017578125
-0.025634765625
-0.03131103515625
-0.0333251953125
-0.0252685546875
-0.01263427734375
-0.0020141601562499996
0.00439453125
0.01373291015625
0.02105712890625
0.0274658203125
0.031494140625
0.0311279296875
0.0260009765625
0.0201416015625
0.01629638671875
0.0146484375
0.01373291015625
0.019409179687499997
0.028015136718749997
0.023437499999999997
0.016845703124999997
0.007507324218749999
-0.0012817382812499998
-0.00714111328125
-0.005859374999999999
-0.00439453125
-0.00640869140625
-0.0062255859375
-0.005859374999999999
-0.0128173828125
-0.019409179687499997
-0.025634765625
-0.027832031249999997
-0.030395507812499997
-0.030395507812499997
-0.02655029296875
-0.024169921874999997
-0.028564453125
-0.03350830078124999
-0.0311279296875
-0.0260009765625
-0.0201416015625
-0.01885986328125
-0.027099609375
-0.03167724609375
-0.03222656249999999
-0.02947998046875
-0.020690917968749997
-0.015014648437499998
-0.015014648437499998
-0.01995849609375
-0.02490234375
-0.0252685546875
-0.0216064453125
-0.020690917968749997
-0.0282440185546875
-0.029663085937500003
-0.03186035156249999
-0.029296875
-0.028015136718749997
-0.029663085937500003
-0.0289306640625
-0.02545166015625
-0.02252197265625
-0.023254394531249997
-0.0252685546875
-0.024353027343749997
-0.02142333984375
-0.010253906249999998
0.01080322265625
0.04064941406249999
0.08624267578125
0.16021728515625
0.24462890625
0.34533691406249994
0.48541259765624994
0.620361328125
0.737548828125
0.83038330078125
0.8847656249999999
0.911865234375
0.87506103515625
0.7767333984375
0.57861328125
0.2618408203125
-0.0897216796875
-0.34094238281249994
-0.45263671874999994
-0.520660400390625
-0.5687255859375
-0.58099365234375
-0.55682373046875
-0.5145263671875
-0.4716796875
-0.4259033203125
-0.37371826171874994
-0.3065185546875
-0.24206542968749994
-0.17907714843749997
-0.12213134765625
-0.07965087890625
-0.05511474609374999
-0.04595947265625
-0.03680419921875
-0.02838134765625
-0.02618408203125
-0.0238037109375
-0.00933837890625
-0.00054931640625
-0.0014648437499999998
-0.0020141601562499996
-0.00018310546874999997
0.005126953124999999
0.01116943359375
0.02105712890625
0.02490234375
0.022155761718749997
0.020324707031249997
0.01629638671875
0.012268066406249998
0.0091552734375
0.012451171875
0.0172119140625
0.027648925781249997
0.03405761718749999
0.04064941406249999
0.04486083984375
0.04650878906249999
0.05035400390625
0.05163574218749999
0.04962158203125
0.05328369140625
0.06024169921875
0.0692138671875
0.072509765625
0.07177734375
0.06903076171875
0.072509765625
0.07763671874999999
0.07598876953125
0.072509765625
0.0728759765625
0.07177734375
0.0728759765625
0.0743408203125
0.0732421875
0.07379150390624999
0.08276367187499999
0.09356689453125
0.10107421875
0.10455322265624999
0.10345458984375
0.09613037109375
0.08551025390625
0.07781982421875
0.08166503906249999
0.08880615234375
0.08862304687499999
0.0853271484375
0.0853271484375
0.09521484375
0.11132812499999999
0.125244140625
0.13165283203125
0.13476562499999997
0.1376953125
0.136962890625
0.14025878906249997
0.1435546875
0.1395263671875
0.13256835937499997
0.13165283203125
0.13714599609375
0.145751953125
0.15362548828125
0.157470703125
0.16241455078125
0.1728515625
0.18035888671875
0.18109130859374997
0.17742919921875
0.18255615234375
0.194091796875
0.19885253906249997
0.20397949218749997
0.208740234375
0.208740234375
0.20709228515625
0.20416259765625
0.2017822265625
0.20745849609374997
0.2171630859375
0.2244873046875
0.22485351562499997
0.2237548828125
0.22467041015625
0.22631835937499997
0.232177734375
0.24023437499999997
0.23638916015625
0.23382568359374997
0.23364257812500003
0.23016357421874997
0.22631835937499997
0.2215576171875
0.21185302734375
0.2017822265625
0.18457031249999997
0.16571044921875
0.15472412109375
0.14794921874999997
0.1446533203125
0.13458251953125
0.11480712890625
0.0897216796875
0.06591796875
0.0399169921875
0.03076171875
0.01318359375
-0.0014648437499999998
-0.013366699218749998
-0.025634765625
-0.035888671875
-0.04742431640624999
-0.06024169921875
-0.06866455078125
-0.08020019531249999
-0.09466552734375
-0.10272216796875
-0.11737060546874999
-0.1270751953125
-0.125244140625
-0.11206054687499999
-0.113525390625
-0.117919921875
-0.12615966796874997
-0.13568115234375
-0.1435546875
-0.1435546875
-0.13787841796875
-0.13256835937499997
-0.1270751953125
-0.12414550781250001
-0.1259765625
-0.12872314453125
-0.136962890625
-0.14410400390624997
-0.14739990234375
-0.1494140625
-0.14208984375
-0.125244140625
-0.12158203124999999
-0.113525390625
-0.11041259765625
-0.11059570312499999
-0.1083984375
-0.11315917968749999
-0.1190185546875
-0.119384765625
-0.11975097656249999
-0.11773681640625
-0.11206054687499999
-0.1058349609375
-0.1025390625
-0.10308837890624999
-0.10235595703124999
-0.09942626953124999
-0.0992431640625
-0.099609375
-0.09228515624999999
-0.087890625
-0.08551025390625
-0.08642578125
-0.091552734375
-0.09613037109375
-0.0908203125
-0.0849609375
-0.071044921875
-0.0640869140625
-0.06079101562499999
-0.06060791015625
-0.06793212890625
-0.07928466796875
-0.09411621093749999
-0.1080322265625
-0.10894775390625
-0.0933837890625
-0.07965087890625
-0.07452392578124999
-0.0626220703125
-0.05639648437499999
-0.05548095703125
-0.05438232421874999
-0.05511474609374999
-0.06005859374999999
-0.06591796875
-0.07177734375
-0.071044921875
-0.0684814453125
-0.06280517578125
-0.06079101562499999
-0.057861328125
-0.06719970703125
-0.08001708984375
-0.08166503906249999
-0.0750732421875
-0.06573486328125
-0.054931640625
-0.04669189453125
-0.046234130859375
-0.05108642578125
-0.052001953125
-0.05072021484375
-0.05126953125
-0.05566406249999999
-0.05511474609374999
-0.05603027343749999
-0.05950927734375
-0.0604248046875
-0.06060791015625
-0.05511474609374999
-0.0428466796875
-0.04815673828125
-0.0523681640625
-0.05108642578125
-0.05346679687499999
-0.0615234375
-0.06793212890625
-0.06445312499999999
-0.061889648437499986
-0.05877685546875
-0.057861328125
-0.05804443359375
-0.054931640625
-0.06134033203124999
-0.0615234375
-0.043212890625
-0.027099609375
-0.030944824218749993
-0.03955078124999999
-0.03900146484375
-0.03826904296874999
-0.03698730468749999
-0.0435791015625
-0.05346679687499999
-0.05438232421874999
-0.0494384765625
-0.04541015625
-0.03955078124999999
-0.03277587890624999
-0.030944824218749993
-0.03881835937499999
-0.043212890625
-0.0439453125
-0.04064941406249999
-0.0325927734375
-0.030029296874999997
-0.026733398437499997
-0.020690917968749997
-0.0197296142578125
-0.0252685546875
-0.03533935546875
-0.04119873046875
-0.04046630859374999
-0.0362548828125
-0.0263671875
-0.017578125
-0.005126953124999999
0.00567626953125
0.01116943359375
0.013916015624999998
0.005859374999999999
0.0007324218749999999
0.0054931640625
0.009887695312499998
0.0146484375
0.0164794921875
0.01629638671875
0.020507812499999997
0.03277587890624999
0.0439453125
0.05529785156249999
0.05603027343749999
0.0589599609375
0.05072021484375
0.0384521484375
0.0252685546875
0.021240234375
0.020507812499999997
0.024169921874999997
0.025634765625
0.0157470703125
-0.00164794921875
-0.00640869140625
-0.00531005859375
-0.004211425781249999
0.00164794921875
0.0014648437499999998
-0.00054931640625
-0.00274658203125
-0.004943847656249999
-0.00164794921875
0.0032958984375
0.006042480468749999
0.00238037109375
0.002197265625
0.00640869140625
0.00787353515625
0.00640869140625
0.00036621093749999995
-0.010391235351562498
-0.021240234375
-0.019409179687499997
-0.0146484375
-0.004028320312499999
0.00439453125
0.0032958984375
-0.0017852783203125
-0.005859374999999999
-0.0062255859375
-0.00677490234375
-0.009704589843749998
-0.01116943359375
-0.012451171875
-0.015380859375
-0.01904296875
-0.01739501953125
-0.018310546875
-0.016845703124999997
-0.00677490234375
0.010253906249999998
0.029113769531249997
0.052001953125
0.08697509765625
0.14794921874999997
0.2318115234375
0.34112548828124994
0.48248291015625
0.633544921875
0.7611694335937499
0.8690185546875
0.933837890625
0.9737548828124999
0.9442749023437499
0.8170166015625
0.6269531249999999
0.33251953124999994
-0.0252685546875
-0.322998046875
-0.47149658203125
-0.563232421875
-0.6221923828124999
-0.6514892578125
-0.6289215087890625
-0.5745849609375
-0.5205230712890625
-0.478271484375
-0.437255859375
-0.38374328613281244
-0.3175048828125
-0.252685546875
-0.1929931640625
-0.14245605468749997
-0.09851074218749999
-0.06079101562499999
-0.04229736328125
-0.03021240234375
-0.02618408203125
-0.024536132812499997
-0.021240234375
-0.0172119140625
-0.012084960937499998
-0.003662109375
0.0047607421875
0.00732421875
0.0075531005859375
0.0128173828125
0.015380859375
0.01629638671875
0.0172119140625
0.01885986328125
0.024169921874999997
0.0274658203125
0.028198242187499997
0.03076171875
0.03277587890624999
0.0355224609375
0.03405761718749999
0.03350830078124999
0.034423828125
0.0355224609375
0.0380859375
0.03863525390625
0.04339599609375
0.05035400390625
0.05419921875
0.05218505859375
0.05108642578125
0.05438232421874999
0.06427001953125
0.0732421875
0.0772705078125
0.07470703125
0.07379150390624999
0.07635498046875
0.07489013671874999
0.0732421875
0.0728759765625
0.07946777343749999
0.08660888671874999
0.09045410156249999
0.09136962890625
0.0908203125
0.09246826171875
0.09411621093749999
0.0992431640625
0.104736328125
0.1065673828125
0.10510253906249999
0.10638427734374999
0.1080322265625
0.11462402343749999
0.1153564453125
0.113525390625
0.11773681640625
0.12652587890625
0.1358642578125
0.140625
0.14190673828125
0.1446533203125
0.145751953125
0.147216796875
0.1494140625
0.15362548828125
0.157470703125
0.15911865234374997
0.16094970703125
0.164794921875
0.16845703125
0.17468261718749997
0.18145751953125
0.1871337890625
0.192626953125
0.19610595703124997
0.19921875
0.20672607421875
0.20837402343749997
0.2109375
0.2164306640625
0.22430419921875
0.22686767578124997
0.22998046875000003
0.23382568359374997
0.23876953125
0.24261474609375
0.24078369140625
0.23052978515624997
0.2197265625
0.21002197265625
0.20782470703125
0.21020507812499997
0.21533203124999997
0.2200927734375
0.22412109374999997
0.2178955078125
0.20965576171875
0.20104980468749997
0.18896484375
0.18457031249999997
0.17633056640625
0.15820312499999997
0.13934326171875
0.125244140625
0.11187744140625
0.09521484375
0.07562255859374999
0.0567626953125
0.03570556640625
0.015930175781249997
-0.0034790039062499996
-0.023071289062499997
-0.04174804687499999
-0.0567626953125
-0.06866455078125
-0.07745361328125
-0.08367919921875
-0.08917236328124999
-0.09777832031249999
-0.1083984375
-0.12011718749999999
-0.1318359375
-0.1376953125
-0.14154052734374997
-0.14392089843749997
-0.14886474609374997
-0.15545654296874997
-0.15673828124999997
-0.1571044921875
-0.1600341796875
-0.16186523437499997
-0.16699218749999997
-0.169921875
-0.17321777343749997
-0.172119140625
-0.16900634765624997
-0.16278076171875
-0.15838623046875
-0.15673828124999997
-0.1578369140625
-0.15618896484374997
-0.15527343749999997
-0.1556396484375
-0.1534423828125
-0.1527099609375
-0.14849853515625
-0.14483642578125
-0.136962890625
-0.1314697265625
-0.12341308593749999
-0.120849609375
-0.11920166015624999
-0.1204833984375
-0.12377929687499997
-0.12171936035156249
-0.11572265625
-0.113525390625
-0.11022949218749999
-0.10638427734374999
-0.10528564453125
-0.10235595703124999
-0.0970458984375
-0.0970458984375
-0.09411621093749999
-0.08990478515624999
-0.08624267578125
-0.0849609375
-0.08477783203124999
-0.0823974609375
-0.0787353515625
-0.0728759765625
-0.069580078125
-0.06903076171875
-0.06555175781249999
-0.06573486328125
-0.06463623046875
-0.06280517578125
-0.06463623046875
-0.06756591796875
-0.0703125
-0.06683349609375
-0.0615234375
-0.05749511718750001
-0.05822753906249999
-0.05914306640624999
-0.05749511718750001
-0.05950927734375
-0.05419921875
-0.0498046875
-0.04541015625
-0.04010009765624999
-0.03753662109375
-0.03387451171875
-0.03607177734375
-0.0362548828125
-0.03881835937499999
-0.04119873046875
-0.043212890625
-0.04797363281249999
-0.04907226562499999
-0.04669189453125
-0.0498046875
-0.04852294921875
-0.04888916015624999
-0.04925537109374999
-0.04998779296875
-0.04797363281249999
-0.05108642578125
-0.04614257812499999
-0.03973388671874999
-0.037353515625
-0.03955078124999999
-0.03936767578125
-0.0377197265625
-0.03973388671874999
-0.04522705078124999
-0.04888916015624999
-0.05566406249999999
-0.0615234375
-0.06390380859375
-0.05841064453125001
-0.05364990234375
-0.04962158203125
-0.04669189453125
-0.04138183593749999
-0.04101562499999999
-0.0421142578125
-0.04174804687499999
-0.0421142578125
-0.0380859375
-0.035888671875
-0.0377197265625
-0.03790283203124999
-0.04101562499999999
-0.04486083984375
-0.0439453125
-0.04174804687499999
-0.04101562499999999
-0.04266357421875
-0.04248046875
-0.04266357421875
-0.04302978515625
-0.0377197265625
-0.03350830078124999
-0.03076171875
-0.03057861328125
-0.03405761718749999
-0.03607177734375
-0.035888671875
-0.028747558593750003
-0.02490234375
-0.02197265625
-0.01776123046875
-0.015930175781249997
-0.02142333984375
-0.02490234375
-0.024169921874999997
-0.024169921874999997
-0.0238037109375
-0.01922607421875
-0.012084960937499998
-0.009521484375
-0.00439453125
0.002197265625
0.01080322265625
0.01556396484375
0.016113281249999997
0.0216064453125
0.024353027343749997
0.025634765625
0.0274658203125
0.028747558593750003
0.03186035156249999
0.03314208984374999
0.034423828125
0.03167724609375
0.03076171875
0.03277587890624999
0.028198242187499997
0.022705078125
0.018310546875
0.015014648437499998
0.009704589843749998
0.004028320312499999
0.00036621093749999995
-0.0010986328125
-0.0010986328125
-0.003662109375
-0.0087890625
-0.01318359375
-0.012268066406249998
-0.01080322265625
-0.014099121093749998
-0.01373291015625
-0.0091552734375
-0.00787353515625
-0.00732421875
-0.00677490234375
-0.011535644531249998
-0.01373291015625
-0.01190185546875
-0.014099121093749998
-0.015380859375
-0.015014648437499998
-0.013366699218749998
-0.013916015624999998
-0.0146484375
-0.018493652343749997
-0.020507812499999997
-0.0186767578125
-0.0172119140625
-0.01776123046875
-0.02197265625
-0.022155761718749997
-0.020874023437499997
-0.01922607421875
-0.021240234375
-0.02105712890625
-0.020690917968749997
-0.021240234375
-0.024353027343749997
-0.0216064453125
-0.013366699218749998
-0.00274658203125
0.00640869140625
0.028564453125
0.06372070312499999
0.1259765625
0.20397949218749997
0.29223632812499994
0.40502929687499994
0.547119140625
0.6800537109375
0.8009033203125
0.8818359374999999
0.9349365234375
0.9605712890625
0.9140625
0.7963256835937499
0.5562744140624999
0.22705078125
-0.11059570312499999
-0.33984375
-0.4500732421875
-0.5207519531249999
-0.5597534179687501
-0.56304931640625
-0.5381469726562499
-0.50445556640625
-0.46801757812499994
-0.4237060546875
-0.36456298828124994
-0.3028564453125
-0.24298095703124997
-0.18603515624999997
-0.13385009765624997
-0.094482421875
-0.06628417968749999
-0.05291748046875
-0.052001953125
-0.0523681640625
-0.052734375
-0.04742431640624999
-0.04431152343749999
-0.03918457031249999
-0.03350830078124999
-0.028564453125
-0.0216064453125
-0.01812744140625
-0.011718749999999998
-0.008422851562499998
-0.006591796875
-0.00439453125
-0.00439453125
-0.00311279296875
-0.00164794921875
0.00384521484375
0.006042480468749999
0.00732421875
0.009521484375
0.010437011718749998
0.01300048828125
0.015930175781249997
0.0164794921875
0.0164794921875
0.0172119140625
0.019409179687499997
0.015930175781249997
0.022155761718749997
0.026733398437499997
0.030944824218749993
0.0325927734375
0.035888671875
0.03643798828125
0.03826904296874999
0.04156494140624999
0.04376220703125
0.04595947265625
0.0472412109375
0.04833984374999999
0.04925537109374999
0.052001953125
0.05566406249999999
0.05950927734375
0.06243896484374999
0.06463623046875
0.066650390625
0.06427001953125
0.06573486328125
0.07049560546875
0.07470703125
0.08020019531249999
0.08184814453125
0.08660888671874999
0.09045410156249999
0.09393310546875
0.09741210937499999
0.10418701171874999
0.1072998046875
0.10894775390625
0.113525390625
0.1160888671875
0.1175537109375
0.11920166015624999
0.122314453125
0.12469482421874999
0.12908935546875
0.1351318359375
0.14025878906249997
0.14501953125
0.15106201171875
0.15582275390625
0.16021728515625
0.16278076171875
0.16644287109375
0.1728515625
0.17669677734375
0.1761474609375
0.17431640625
0.1776123046875
0.18200683593749997
0.18749999999999997
0.19061279296875
0.1944580078125
0.19372558593749997
0.19372558593749997
0.194091796875
0.20013427734374997
0.20343017578124997
0.20416259765625
0.20343017578124997
0.201416015625
0.20251464843749997
0.20086669921875
0.2021484375
0.19921875
0.19464111328124997
0.19171142578125
0.1849365234375
0.17907714843749997
0.1724853515625
0.1636962890625
0.15765380859374997
0.14886474609374997
0.13568115234375
0.12451171875
0.10784912109375
0.09667968749999999
0.08166503906249999
0.06573486328125
0.04833984374999999
0.0325927734375
0.01556396484375
0.00091552734375
-0.012268066406249998
-0.02490234375
-0.03955078124999999
-0.05126953125
-0.06134033203124999
-0.07177734375
-0.08074951171875
-0.08734130859374999
-0.09869384765624999
-0.10766601562499999
-0.11022949218749999
-0.11663818359374999
-0.1259765625
-0.1322021484375
-0.1343994140625
-0.1351318359375
-0.13916015625
-0.13861083984375
-0.140625
-0.14172363281249997
-0.14025878906249997
-0.14483642578125
-0.147216796875
-0.15087890625
-0.1483154296875
-0.145751953125
-0.14556884765625
-0.14501953125
-0.145751953125
-0.13970947265625
-0.13751220703124997
-0.1373291015625
-0.1318359375
-0.13037109375
-0.13018798828124997
-0.12908935546875
-0.12542724609375
-0.1204833984375
-0.11627197265625
-0.1153564453125
-0.11187744140625
-0.10968017578125
-0.10693359374999999
-0.10565185546874999
-0.1036376953125
-0.1014404296875
-0.1007080078125
-0.09777832031249999
-0.09722900390625
-0.09484863281249999
-0.09320068359375
-0.09118652343749999
-0.08843994140624999
-0.0867919921875
-0.08276367187499999
-0.07946777343749999
-0.07836914062499999
-0.076904296875
-0.07635498046875
-0.07415771484375
-0.07489013671874999
-0.07086181640624999
-0.06738281249999999
-0.0692138671875
-0.0706787109375
-0.0677490234375
-0.0640869140625
-0.065185546875
-0.06573486328125
-0.06536865234375
-0.06701660156249999
-0.0648193359375
-0.06372070312499999
-0.06427001953125
-0.0626220703125
-0.0596923828125
-0.0618438720703125
-0.0615234375
-0.05859375
-0.06005859374999999
-0.06097412109374999
-0.06005859374999999
-0.05804443359375
-0.05566406249999999
-0.054931640625
-0.05584716796875
-0.05474853515624999
-0.05657958984374999
-0.05749511718750001
-0.05255126953124999
-0.052734375
-0.0523681640625
-0.05163574218749999
-0.05072021484375
-0.0531005859375
-0.05328369140625
-0.04962158203125
-0.050537109375
-0.0509033203125
-0.0498046875
-0.04669189453125
-0.04541015625
-0.047607421875
-0.04650878906249999
-0.0501708984375
-0.0501708984375
-0.05035400390625
-0.0498046875
-0.04870605468749999
-0.0494384765625
-0.047607421875
-0.04614257812499999
-0.04742431640624999
-0.04833984374999999
-0.04907226562499999
-0.04687499999999999
-0.04669189453125
-0.04431152343749999
-0.04229736328125
-0.04156494140624999
-0.03826904296874999
-0.037353515625
-0.03918457031249999
-0.03826904296874999
-0.03405761718749999
-0.03350830078124999
-0.0325927734375
-0.03858947753906249
-0.0384521484375
-0.04010009765624999
-0.04248046875
-0.04138183593749999
-0.03863525390625
-0.0399169921875
-0.03955078124999999
-0.037353515625
-0.03698730468749999
-0.0384521484375
-0.04010009765624999
-0.035888671875
-0.0347900390625
-0.03387451171875
-0.0384521484375
-0.03698730468749999
-0.03222656249999999
-0.027648925781249997
-0.029113769531249997
-0.025817871093749997
-0.02490234375
-0.030029296874999997
-0.030395507812499997
-0.02728271484375
-0.019409179687499997
-0.014099121093749998
-0.00933837890625
-0.006958007812499999
-0.0034790039062499996
-0.0010986328125
0.00640869140625
0.0135498046875
0.01629638671875
0.02105712890625
0.02288818359375
0.023986816406249997
0.023437499999999997
0.020507812499999997
0.020324707031249997
0.025634765625
0.03222656249999999
0.035888671875
0.03936767578125
0.04339599609375
0.03881835937499999
0.03240966796875
0.026916503906249997
0.021240234375
0.013916015624999998
0.00823974609375
0.009521484375
0.0034790039062499996
0.00311279296875
-0.00036621093749999995
-0.00439453125
-0.012451171875
-0.0146484375
-0.01666259765625
-0.0179443359375
-0.01373291015625
-0.00860595703125
-0.00714111328125
-0.01080322265625
-0.00897216796875
-0.0054931640625
-0.009521484375
-0.00531005859375
-0.0054931640625
-0.00714111328125
-0.010986328125
-0.0091552734375
-0.00897216796875
-0.010253906249999998
-0.014099121093749998
-0.01629638671875
-0.01666259765625
-0.01812744140625
-0.01995849609375
-0.022705078125
-0.022705078125
-0.02178955078125
-0.0252685546875
-0.02490234375
-0.023437499999999997
-0.023254394531249997
-0.02197265625
-0.020507812499999997
-0.019409179687499997
-0.01995849609375
-0.015197753906249998
-0.011535644531249998
-0.0034790039062499996
0.0113525390625
0.03277587890624999
0.0714111328125
0.13476562499999997
0.216796875
0.305419921875
0.4193115234375
0.5577392578125
0.6965332031249999
0.8159179687499999
0.8984985351562499
0.9510498046875
1.00067138671875
0.9759521484375
0.8507080078124999
0.609375
0.27777099609374994
-0.061889648437499986
-0.28765869140624994
-0.390380859375
-0.4541015625
-0.49310302734374994
-0.507568359375
-0.49749755859375
-0.46948242187499994
-0.428466796875
-0.37225341796874994
-0.317138671875
-0.25909423828125
-0.198486328125
-0.14501953125
-0.10382080078124999
-0.07708740234375
-0.06738281249999999
-0.06353759765625
-0.0615234375
-0.062255859375
-0.0626220703125
-0.06500244140625
-0.061889648437499986
-0.05584716796875
-0.05126953125
-0.04742431640624999
-0.0450439453125
-0.03533935546875
-0.029296875
-0.02618408203125
-0.024169921874999997
-0.02197265625
-0.02288818359375
-0.020874023437499997
-0.017578125
-0.0179443359375
-0.011718749999999998
-0.01300048828125
-0.00860595703125
-0.005126953124999999
-0.00018310546874999997
-0.0007324218749999999
-0.0018310546875
-0.00036621093749999995
0.002197265625
0.005126953124999999
0.007507324218749999
0.010986328125
0.015380859375
0.01629638671875
0.021240234375
0.02197265625
0.01922607421875
0.020507812499999997
0.02545166015625
0.026733398437499997
0.0263671875
0.029113769531249997
0.03222656249999999
0.03204345703125
0.03277587890624999
0.03533935546875
0.03460693359375
0.03698730468749999
0.03918457031249999
0.0428466796875
0.04541015625
0.04779052734374999
0.04797363281249999
0.05126953125
0.05712890625
0.05987548828124999
0.06390380859375
0.06811523437499999
0.0706787109375
0.0714111328125
0.07177734375
0.07525634765624999
0.0750732421875
0.08020019531249999
0.090087890625
0.09301757812499999
0.09667968749999999
0.1025390625
0.10784912109375
0.109130859375
0.11260986328125
0.11407470703125
0.11828613281249999
0.12469482421874999
0.125244140625
0.12835693359374997
0.13604736328125
0.14208984375
0.1468505859375
0.14794921874999997
0.1519775390625
0.15655517578125
0.16333007812499997
0.16827392578124997
0.17175292968749997
0.17596435546874997
0.17706298828125
0.181640625
0.185302734375
0.19061279296875
0.19390869140625
0.1959228515625
0.19610595703124997
0.19372558593749997
0.19555664062499997
0.19702148437499997
0.19683837890625
0.194091796875
0.19207763671875
0.18896484375
0.18255615234375
0.17724609374999997
0.17413330078124997
0.1688232421875
0.1629638671875
0.15216064453125
0.14245605468749997
0.125244140625
0.1083984375
0.09374999999999999
0.07763671874999999
0.05877685546875
0.04486083984375
0.030029296874999997
0.0113525390625
-0.006591796875
-0.0216064453125
-0.0311279296875
-0.047607421875
-0.06079101562499999
-0.0787353515625
-0.09301757812499999
-0.1065673828125
-0.11517333984374999
-0.12377929687499997
-0.1322021484375
-0.14208984375
-0.146484375
-0.1483154296875
-0.15289306640625
-0.1563720703125
-0.15820312499999997
-0.16278076171875
-0.16333007812499997
-0.16333007812499997
-0.1673583984375
-0.16717529296875
-0.17047119140624997
-0.1651611328125
-0.16442871093749997
-0.16333007812499997
-0.16186523437499997
-0.1585693359375
-0.15527343749999997
-0.15472412109375
-0.15179443359374997
-0.14923095703125
-0.14776611328125
-0.147216796875
-0.14556884765625
-0.1468505859375
-0.1435546875
-0.14483642578125
-0.14373779296875
-0.14300537109375
-0.1409912109375
-0.14208984375
-0.13861083984375
-0.13275146484375
-0.13018798828124997
-0.126708984375
-0.1259765625
-0.12176513671875
-0.123046875
-0.122314453125
-0.11480712890625
-0.11315917968749999
-0.11260986328125
-0.11407470703125
-0.113525390625
-0.1083984375
-0.1065673828125
-0.10345458984375
-0.100341796875
-0.09667968749999999
-0.09558105468749999
-0.09484863281249999
-0.09466552734375
-0.0908203125
-0.08843994140624999
-0.08642578125
-0.08642578125
-0.084228515625
-0.08697509765625
-0.085693359375
-0.08276367187499999
-0.07855224609375
-0.08111572265625
-0.07928466796875
-0.0766754150390625
-0.07397460937499999
-0.0692138671875
-0.0666046142578125
-0.06243896484374999
-0.05877685546875
-0.05712890625
-0.06005859374999999
-0.06170654296874999
-0.05731201171874999
-0.05914306640624999
-0.06134033203124999
-0.06463623046875
-0.062255859375
-0.05987548828124999
-0.05822753906249999
-0.05767822265625
-0.05767822265625
-0.054931640625
-0.05603027343749999
-0.05383300781249999
-0.0509033203125
-0.05126953125
-0.05145263671875
-0.050537109375
-0.04541015625
-0.05126953125
-0.047607421875
-0.04522705078124999
-0.04907226562499999
-0.04669189453125
-0.04705810546874999
-0.046234130859375
-0.04248046875
-0.0439453125
-0.0457763671875
-0.0439453125
-0.0435791015625
-0.04431152343749999
-0.0435791015625
-0.04046630859374999
-0.043212890625
-0.04559326171874999
-0.04486083984375
-0.04632568359375
-0.04815673828125
-0.04907226562499999
-0.04833984374999999
-0.04559326171874999
-0.04705810546874999
-0.04742431640624999
-0.043212890625
-0.04083251953124999
-0.04559326171874999
-0.04541015625
-0.04412841796875
-0.04339599609375
-0.04302978515625
-0.043212890625
-0.0439453125
-0.04101562499999999
-0.03607177734375
-0.03973388671874999
-0.0421142578125
-0.04541015625
-0.044677734375
-0.04248046875
-0.0439453125
-0.04101562499999999
-0.0380859375
-0.03515625
-0.03186035156249999
-0.029663085937500003
-0.026733398437499997
-0.023986816406249997
-0.025817871093749997
-0.0263671875
-0.023254394531249997
-0.023437499999999997
-0.0223388671875
-0.01885986328125
-0.019775390624999997
-0.020874023437499997
-0.0238037109375
-0.025817871093749997
-0.0238037109375
-0.01739501953125
-0.01318359375
-0.01373291015625
-0.014099121093749998
-0.01556396484375
-0.01904296875
-0.02142333984375
-0.016113281249999997
-0.0113525390625
-0.00860595703125
-0.00714111328125
-0.00457763671875
0.0029296874999999996
0.0087890625
0.0157470703125
0.0238037109375
0.02947998046875
0.03186035156249999
0.03350830078124999
0.03387451171875
0.03387451171875
0.03387451171875
0.03515625
0.04083251953124999
0.04522705078124999
0.04779052734374999
0.04870605468749999
0.04797363281249999
0.0435791015625
0.03698730468749999
0.034423828125
0.03222656249999999
0.03131103515625
0.02728271484375
0.023437499999999997
0.019775390624999997
0.015014648437499998
0.008422851562499998
0.0029296874999999996
0.0014648437499999998
0.004943847656249999
0.00439453125
0.005859374999999999
0.006958007812499999
0.0087890625
0.009887695312499998
0.01007080078125
0.007507324218749999
0.00787353515625
0.00531005859375
0.0047607421875
0.004211425781249999
0.0020141601562499996
-0.0010986328125
-0.0029296874999999996
-0.00018310546874999997
-0.0020141601562499996
-0.004943847656249999
-0.0054931640625
-0.0047607421875
-0.004028320312499999
-0.00714111328125
-0.008056640624999998
-0.00860595703125
-0.00860595703125
-0.005859374999999999
-0.00640869140625
-0.00640869140625
-0.009521484375
-0.012268066406249998
-0.0157470703125
-0.01556396484375
-0.01300048828125
-0.00823974609375
-0.0018310546875
0.005859374999999999
0.01373291015625
0.0347900390625
0.069580078125
0.12744140624999997
0.2021484375
0.2841796875
0.39093017578125
0.52056884765625
0.65826416015625
0.7822265624999999
0.8690185546875
0.9241333007812499
0.968994140625
0.9638671875
0.86517333984375
0.66156005859375
0.35687255859374994
0.01007080078125
-0.25103759765625
-0.37005615234375
-0.43977355957031244
-0.48046874999999994
-0.50262451171875
-0.4976348876953125
-0.4716796875
-0.4310302734375
-0.37481689453124994
-0.318603515625
-0.26037597656249994
-0.20562744140625
-0.15179443359374997
-0.10693359374999999
-0.0787353515625
-0.06884765625
-0.06500244140625
-0.06243896484374999
-0.0615234375
-0.05987548828124999
-0.05841064453125001
-0.05639648437499999
-0.05346679687499999
-0.04833984374999999
-0.04559326171874999
-0.04174804687499999
-0.03900146484375
-0.034423828125
-0.03405761718749999
-0.030395507812499997
-0.026916503906249997
-0.0238037109375
-0.01812744140625
-0.01666259765625
-0.01263427734375
-0.009887695312499998
-0.004028320312499999
0.00091552734375
0.00567626953125
0.00933837890625
0.0106201171875
0.011535644531249998
0.0146484375
0.01904296875
0.01776123046875
0.01739501953125
0.0201416015625
0.020874023437499997
0.019592285156249997
0.019409179687499997
0.020507812499999997
0.02288818359375
0.026916503906249997
0.028564453125
0.028747558593750003
0.03076171875
0.03369140624999999
0.0377197265625
0.04229736328125
0.04541015625
0.04907226562499999
0.05108642578125
0.05511474609374999
0.05877685546875
0.06097412109374999
0.06445312499999999
0.069580078125
0.072509765625
0.07452392578124999
0.07910156249999999
0.08551025390625
0.08807373046875
0.090087890625
0.09027099609374999
0.08843994140624999
0.08734130859374999
0.09246826171875
0.09759521484375
0.1029052734375
0.10949707031249999
0.11315917968749999
0.11132812499999999
0.1116943359375
0.11334228515624999
0.11572265625
0.1171875
0.11883544921874999
0.12451171875
0.13256835937499997
0.14025878906249997
0.14373779296875
0.1431884765625
0.1468505859375
0.15087890625
0.15692138671874997
0.16406249999999997
0.16845703125
0.1728515625
0.17706298828125
0.18255615234375
0.18457031249999997
0.18823242187499997
0.18951416015625
0.18951416015625
0.18896484375
0.19171142578125
0.19628906249999997
0.20123291015624997
0.20526123046874997
0.20416259765625
0.202880859375
0.20306396484375
0.2032470703125
0.20104980468749997
0.19372558593749997
0.18658447265625
0.18035888671875
0.17596435546874997
0.1728515625
0.16809082031249997
0.16204833984375
0.1549072265625
0.1409912109375
0.1263427734375
0.11004638671875
0.09283447265625
0.0750732421875
0.05401611328125
0.03369140624999999
0.015014648437499998
-0.0029296874999999996
-0.017578125
-0.029296875
-0.04376220703125
-0.0611572265625
-0.08093261718749999
-0.09521484375
-0.109130859375
-0.11828613281249999
-0.12286376953125
-0.12835693359374997
-0.13568115234375
-0.14758300781249997
-0.1611328125
-0.16900634765624997
-0.16644287109375
-0.16387939453125
-0.16406249999999997
-0.16131591796875
-0.15985107421875
-0.15893554687499997
-0.1571044921875
-0.1578369140625
-0.1571044921875
-0.1571044921875
-0.15911865234374997
-0.16040039062499997
-0.16717529296875
-0.1666259765625
-0.15966796875
-0.1578369140625
-0.15582275390625
-0.15289306640625
-0.15069580078125
-0.148681640625
-0.145751953125
-0.146484375
-0.14978027343749997
-0.15124511718749997
-0.15087890625
-0.148681640625
-0.14758300781249997
-0.144287109375
-0.1343994140625
-0.12469482421874999
-0.11846923828124999
-0.11682128906250001
-0.11480712890625
-0.1109619140625
-0.10766601562499999
-0.10546875
-0.101806640625
-0.09942626953124999
-0.09832763671875
-0.09741210937499999
-0.104736328125
-0.11334228515624999
-0.11700439453124999
-0.11462402343749999
-0.10931396484375
-0.0992431640625
-0.0908203125
-0.0853271484375
-0.07781982421875
-0.07836914062499999
-0.08020019531249999
-0.07818603515625
-0.07928466796875
-0.08020019531249999
-0.0823974609375
-0.08514404296875
-0.08477783203124999
-0.08477783203124999
-0.08038330078124999
-0.07672119140625
-0.07269287109374999
-0.0702667236328125
-0.06628417968749999
-0.06646728515625
-0.065185546875
-0.0703125
-0.07580566406249999
-0.07928466796875
-0.07580566406249999
-0.0699462890625
-0.06628417968749999
-0.0615234375
-0.05731201171874999
-0.05566406249999999
-0.05804443359375
-0.06097412109374999
-0.065185546875
-0.07086181640624999
-0.0699462890625
-0.06939697265625
-0.07086181640624999
-0.06701660156249999
-0.0633544921875
-0.05932617187500001
-0.05218505859375
-0.052734375
-0.05255126953124999
-0.0531005859375
-0.052734375
-0.05346679687499999
-0.05639648437499999
-0.05657958984374999
-0.05749511718750001
-0.05712890625
-0.06060791015625
-0.06463623046875
-0.0677490234375
-0.06555175781249999
-0.05749511718750001
-0.052734375
-0.05218505859375
-0.05346679687499999
-0.06005859374999999
-0.05950927734375
-0.05694580078124999
-0.05401611328125
-0.0567626953125
-0.061889648437499986
-0.062255859375
-0.0615234375
-0.05548095703125
-0.05181884765625
-0.04815673828125
-0.04559326171874999
-0.04376220703125
-0.04559326171874999
-0.04815673828125
-0.050537109375
-0.05364990234375
-0.05529785156249999
-0.04833984374999999
-0.04248046875
-0.040283203125
-0.03900146484375
-0.040283203125
-0.03973388671874999
-0.0355224609375
-0.02838134765625
-0.02362060546875
-0.021240234375
-0.0223388671875
-0.02105712890625
-0.02178955078125
-0.0238037109375
-0.027832031249999997
-0.028747558593750003
-0.025634765625
-0.02178955078125
-0.01776123046875
-0.01776123046875
-0.019409179687499997
-0.01904296875
-0.023254394531249997
-0.027648925781249997
-0.028564453125
-0.020874023437499997
-0.0135498046875
-0.01318359375
-0.016113281249999997
-0.01666259765625
-0.01446533203125
-0.015014648437499998
-0.01812744140625
-0.021011352539062497
-0.022705078125
-0.019409179687499997
-0.016845703124999997
-0.013366699218749998
-0.009704589843749998
-0.00640869140625
-0.00457763671875
-0.0020141601562499996
0.0012817382812499998
0.01080322265625
0.018493652343749997
0.0216064453125
0.023254394531249997
0.029296875
0.03369140624999999
0.03131103515625
0.028747558593750003
0.026733398437499997
0.0289306640625
0.03314208984374999
0.03204345703125
0.03240966796875
0.0311279296875
0.025634765625
0.016113281249999997
0.0128173828125
0.016845703124999997
0.0164794921875
0.01263427734375
0.01116943359375
0.0054931640625
0.00439453125
0.0018310546875
-0.0018310546875
-0.00439453125
-0.006042480468749999
-0.0128173828125
-0.020507812499999997
-0.027099609375
-0.029296875
-0.026733398437499997
-0.01318359375
-0.00238037109375
-0.0018310546875
-0.006042480468749999
-0.012084960937499998
-0.01190185546875
-0.00677490234375
-0.0007324218749999999
-0.00036621093749999995
-0.00036621093749999995
-0.0076904296875
-0.01556396484375
-0.026916503906249997
-0.03076171875
-0.0263671875
-0.017578125
-0.0091552734375
-0.009887695312499998
-0.0135498046875
-0.01318359375
-0.01007080078125
-0.00531005859375
-0.0007324218749999999
0.0014648437499999998
-0.00238037109375
-0.003662109375
-0.0032958984375
-0.0025634765624999996
0.0029296874999999996
0.00933837890625
0.0142822265625
0.0263671875
0.04797363281249999
0.07891845703125
0.13330078125
0.21221923828125
0.306884765625
0.42535400390624994
0.5654296875
0.6895751953125
0.802001953125
0.8814697265624999
0.9305419921874999
0.9364013671875
0.863525390625
0.7267456054687499
0.4740600585937499
0.13092041015625
-0.19628906249999997
-0.38488769531249994
-0.47131347656249994
-0.5225830078125
-0.55535888671875
-0.54876708984375
-0.51690673828125
-0.48596191406249994
-0.46179199218750006
-0.42718505859375
-0.36895751953125
-0.29241943359374994
-0.22064208984375
-0.1555938720703125
-0.10382080078124999
-0.0648193359375
-0.03680419921875
-0.026916503906249997
-0.025634765625
-0.030395507812499997
-0.03314208984374999
-0.03369140624999999
-0.029663085937500003
-0.02197265625
-0.00860595703125
-0.004943847656249999
-0.00714111328125
-0.0025634765624999996
0.00439453125
0.0087890625
0.008056640624999998
0.0106201171875
0.0186767578125
0.026733398437499997
0.03314208984374999
0.0347900390625
0.029296875
0.0263671875
0.024353027343749997
0.023986816406249997
0.023437499999999997
0.03131103515625
0.04650878906249999
0.05822753906249999
0.06573486328125
0.06610107421875
0.0567626953125
0.05072021484375
0.04998779296875
0.0494384765625
0.04669189453125
0.04998779296875
0.0494384765625
0.05126953125
0.0604248046875
0.06719970703125
0.075439453125
0.0780029296875
0.075439453125
0.07012939453124999
0.06536865234375
0.06060791015625
0.05401611328125
0.0523681640625
0.0611572265625
0.06939697265625
0.072509765625
0.075439453125
0.08020019531249999
0.08935546875
0.09503173828125
0.09759521484375
0.10125732421874999
0.10162353515625
0.1014404296875
0.10455322265624999
0.10949707031249999
0.11389160156249999
0.10931396484375
0.10382080078124999
0.1036376953125
0.11315917968749999
0.12689208984375
0.13348388671875
0.13458251953125
