0.006958007812499999
0.0047607421875
0.007507324218749999
0.01776123046875
0.0135498046875
0.007507324218749999
0.006958007812499999
-0.0018310546875
-0.012451171875
-0.01300048828125
-0.00732421875
-0.0029296874999999996
-0.00714111328125
-0.00732421875
-0.0091552734375
-0.01446533203125
-0.0186767578125
-0.02197265625
-0.02252197265625
-0.023071289062499997
-0.018310546875
-0.010437011718749998
-0.013916015624999998
-0.029663085937500003
-0.0362548828125
-0.022155761718749997
0.0018310546875
0.022705078125
0.026733398437499997
0.014099121093749998
-0.0010986328125
-0.0146484375
-0.0238037109375
-0.04101562499999999
-0.05163574218749999
-0.040283203125
-0.0157470703125
0.02252197265625
0.06573486328125
0.13897705078124997
0.22705078125
0.31402587890625
0.4189453125
0.5460205078125
0.6650390624999999
0.7902832031249999
0.93841552734375
1.103759765625
1.19677734375
1.1625366210937498
0.9239501953125
0.45849609374999994
0.0029296874999999996
-0.29241943359374994
-0.41802978515624994
-0.42425537109375
-0.37152099609375
-0.311279296875
-0.2471923828125
-0.18017578125
-0.129638671875
-0.10894775390625
-0.1014404296875
-0.10327148437499999
-0.10089111328125
-0.10455322265624999
-0.10638427734374999
-0.10418701171874999
-0.099609375
-0.09301757812499999
-0.0933837890625
-0.09796142578125
-0.10107421875
-0.1014404296875
-0.10400390625
-0.1058349609375
-0.1014404296875
-0.10327148437499999
-0.10876464843749999
-0.10766601562499999
-0.10968017578125
-0.11187744140625
-0.11059570312499999
-0.1058349609375
-0.100341796875
-0.09906005859375
-0.09759521484375
-0.09283447265625
-0.0853271484375
-0.07397460937499999
-0.06829833984374999
-0.0692138671875
-0.06701660156249999
-0.06445312499999999
-0.052734375
-0.0439453125
-0.03204345703125
-0.0289306640625
-0.022705078125
-0.017578125
-0.0201416015625
-0.026733398437499997
-0.03826904296874999
-0.04431152343749999
-0.04669189453125
-0.0494384765625
-0.04522705078124999
-0.03900146484375
-0.03662109375
-0.04248046875
-0.04486083984375
-0.0439453125
-0.0428466796875
-0.0399169921875
-0.03918457031249999
-0.03186035156249999
-0.0252685546875
-0.015197753906249998
-0.012268066406249998
-0.0025634765624999996
-0.004211425781249999
-0.01318359375
-0.015014648437499998
-0.007507324218749999
-0.00439453125
0.0091552734375
0.01922607421875
0.01885986328125
0.0142822265625
0.012451171875
0.00732421875
0.004211425781249999
0.00567626953125
0.0091552734375
0.0076904296875
0.0047607421875
-0.0014648437499999998
-0.008422851562499998
-0.01190185546875
-0.01007080078125
-0.00732421875
-0.00933837890625
-0.01739501953125
-0.0223388671875
-0.02471923828125
-0.03240966796875
-0.03900146484375
-0.04431152343749999
-0.04742431640624999
-0.05218505859375
-0.05181884765625
-0.052001953125
-0.05328369140625
-0.05126953125
-0.04797363281249999
-0.0325927734375
-0.01300048828125
0.00274658203125
0.0135498046875
0.0186767578125
0.0216064453125
0.025634765625
0.023437499999999997
0.022705078125
0.02545166015625
0.03369140624999999
0.035888671875
0.03717041015625
0.03717041015625
0.03405761718749999
0.028015136718749997
0.02252197265625
0.0172119140625
0.014831542968750002
0.0029296874999999996
-0.00640869140625
-0.005859374999999999
-0.00384521484375
-0.00457763671875
-0.01080322265625
-0.0062255859375
-0.008422851562499998
-0.011718749999999998
-0.0216064453125
-0.0201416015625
-0.0146484375
-0.017578125
-0.020507812499999997
-0.020507812499999997
-0.013916015624999998
-0.010253906249999998
-0.00933837890625
-0.0047607421875
-0.002197265625
0.0014648437499999998
0.00384521484375
0.012268066406249998
0.02142333984375
0.0238037109375
0.02197265625
0.01776123046875
0.0054931640625
-0.0047607421875
-0.005859374999999999
0.00018310546874999997
0.0020141601562499996
0.0087890625
0.013366699218749998
0.016845703124999997
0.0128173828125
0.009887695312499998
0.0106201171875
0.00640869140625
0.0007324218749999999
-0.0113525390625
-0.01300048828125
-0.016845703124999997
-0.015014648437499998
-0.0179443359375
-0.015197753906249998
-0.011535644531249998
-0.00531005859375
0.00274658203125
0.0029296874999999996
0.004211425781249999
0.002197265625
0.00164794921875
0.00054931640625
0.00531005859375
0.0146484375
0.0034790039062499996
-0.0029296874999999996
0.0029296874999999996
-0.00018310546874999997
0.0054931640625
0.013916015624999998
0.015930175781249997
0.012084960937499998
0.0062255859375
0.004943847656249999
0.00823974609375
0.005126953124999999
-0.0034790039062499996
-0.01190185546875
-0.015380859375
-0.013916015624999998
-0.013916015624999998
-0.01300048828125
-0.00787353515625
-0.00823974609375
-0.013916015624999998
-0.020874023437499997
-0.024169921874999997
-0.01904296875
-0.015380859375
-0.012451171875
-0.013366699218749998
-0.0164794921875
-0.01318359375
-0.006042480468749999
0.0014648437499999998
0.012084960937499998
0.0260009765625
0.024353027343749997
0.013916015624999998
0.0047607421875
-0.0020141601562499996
0.00036621093749999995
0.0007324218749999999
0.0029296874999999996
0.0054931640625
0.01666259765625
0.019775390624999997
0.025634765625
0.027832031249999997
0.0384521484375
0.0545654296875
0.07452392578124999
0.08184814453125
0.08056640625
0.069580078125
0.0589599609375
0.04687499999999999
0.028747558593750003
0.01373291015625
0.0087890625
0.004028320312499999
-0.0014648437499999998
-0.00457763671875
-0.010437011718749998
-0.015380859375
-0.01812744140625
-0.0179443359375
-0.0172119140625
-0.0179443359375
-0.014099121093749998
-0.008422851562499998
-0.006042480468749999
0.004943847656249999
0.012084960937499998
0.0157470703125
0.022705078125
0.02471923828125
0.025817871093749997
0.020507812499999997
0.0106201171875
0.00567626953125
0.004943847656249999
0.00567626953125
0.00732421875
0.010253906249999998
0.0091552734375
0.004211425781249999
-0.00036621093749999995
-0.006958007812499999
-0.0091552734375
-0.00933837890625
-0.011535644531249998
-0.026916503906249997
-0.0325927734375
-0.03204345703125
-0.02252197265625
0.0034790039062499996
0.0523681640625
0.12158203124999999
0.21203613281249997
0.3076171875
0.413818359375
0.53411865234375
0.6383056640625
0.7670288085937499
0.9283447265625
1.1107177734375
1.1971435546874998
1.171142578125
0.9492187500000001
0.5130615234375
0.0728759765625
-0.22943115234374997
-0.368408203125
-0.3988037109375
-0.36950683593749994
-0.3270263671875
-0.27227783203124994
-0.20910644531249997
-0.14410400390624997
-0.109130859375
-0.1065673828125
-0.1014404296875
-0.0992431640625
-0.10327148437499999
-0.11132812499999999
-0.1116943359375
-0.11004638671875
-0.117919921875
-0.12341308593749999
-0.12194824218749999
-0.120849609375
-0.1190185546875
-0.12451171875
-0.11975097656249999
-0.1171875
-0.11462402343749999
-0.10601806640624999
-0.09832763671875
-0.08660888671874999
-0.07379150390624999
-0.076904296875
-0.07452392578124999
-0.0728759765625
-0.07525634765624999
-0.08587646484374999
-0.087890625
-0.08331298828125
-0.08111572265625
-0.0838623046875
-0.079833984375
-0.0823974609375
-0.08258056640625
-0.07635498046875
-0.07635498046875
-0.07489013671874999
-0.06884765625
-0.05914306640624999
-0.05822753906249999
-0.062255859375
-0.0633544921875
-0.05877685546875
-0.0509033203125
-0.05035400390625
-0.052734375
-0.05291748046875
-0.05804443359375
-0.05291748046875
-0.04815673828125
-0.0457763671875
-0.04412841796875
-0.0384521484375
-0.034423828125
-0.0333251953125
-0.03515625
-0.03533935546875
-0.03222656249999999
-0.028015136718749997
-0.02984619140625
-0.03076171875
-0.03240966796875
-0.029113769531249997
-0.025634765625
-0.023254394531249997
-0.0172119140625
-0.016113281249999997
-0.018310546875
-0.0164794921875
-0.015014648437499998
-0.013916015624999998
-0.0172119140625
-0.0186767578125
-0.02105712890625
-0.02947998046875
-0.024536132812499997
-0.0164794921875
-0.015380859375
-0.015197753906249998
-0.02105712890625
-0.024536132812499997
-0.015380859375
-0.03131103515625
-0.04614257812499999
-0.05218505859375
-0.05511474609374999
-0.05584716796875
-0.04815673828125
-0.03918457031249999
-0.020874023437499997
-0.020874023437499997
-0.0325927734375
-0.03405761718749999
-0.030944824218749993
-0.01904296875
-0.00457763671875
0.0034790039062499996
0.0146484375
0.02142333984375
0.02178955078125
0.0252685546875
0.03369140624999999
0.0263671875
0.01812744140625
0.023071289062499997
0.0172119140625
0.008422851562499998
0.0076904296875
0.00439453125
0.01812744140625
0.016113281249999997
0.014831542968750002
0.025634765625
0.020324707031249997
0.023437499999999997
0.0263671875
0.0186767578125
0.01080322265625
0.012084960937499998
0.0029296874999999996
-0.008056640624999998
-0.01318359375
-0.0091552734375
0.0025634765624999996
-0.00274658203125
0.0054931640625
-0.00567626953125
-0.0223388671875
-0.01776123046875
-0.013366699218749998
-0.0054931640625
0.0020141601562499996
0.006958007812499999
0.0106201171875
0.006958007812499999
-0.004943847656249999
-0.018310546875
-0.020690917968749997
-0.025634765625
-0.0294342041015625
-0.0260009765625
-0.0128173828125
0.0025634765624999996
0.00567626953125
-0.0010986328125
-0.0062255859375
-0.006958007812499999
-0.004943847656249999
-0.0062255859375
-0.002197265625
0.008422851562499998
0.014831542968750002
0.00860595703125
0.006958007812499999
0.004028320312499999
-0.00054931640625
-0.00036621093749999995
0.00457763671875
0.00531005859375
0.00531005859375
0.00567626953125
-0.00164794921875
-0.0018310546875
0.006958007812499999
0.00018310546874999997
-0.01263427734375
-0.01739501953125
-0.015014648437499998
-0.01116943359375
-0.010986328125
-0.00567626953125
-0.00457763671875
-0.00714111328125
-0.01190185546875
-0.01080322265625
-0.017578125
-0.005126953124999999
-0.00732421875
-0.01318359375
-0.015380859375
-0.017028808593749997
-0.00860595703125
-0.00439453125
-0.01373291015625
-0.01739501953125
-0.0029296874999999996
0.00677490234375
0.0047607421875
0.0012817382812499998
0.00384521484375
0.00714111328125
0.00714111328125
0.0018310546875
-0.00036621093749999995
0.00860595703125
0.0018310546875
-0.01080322265625
-0.004943847656249999
-0.009887695312499998
-0.00933837890625
-0.00567626953125
-0.009521484375
-0.0034790039062499996
-0.011718749999999998
-0.015380859375
-0.0113525390625
-0.013916015624999998
-0.006042480468749999
-0.004898071289062499
-0.00164794921875
0.00439453125
0.0146484375
0.013916015624999998
0.02288818359375
0.019775390624999997
0.01995849609375
0.0428466796875
0.0626220703125
0.0615234375
0.05804443359375
0.06097412109374999
0.06756591796875
0.07928466796875
0.06005859374999999
0.0252685546875
0.017028808593749997
0.00439453125
0.0037078857421875004
0.0014648437499999998
-0.0128173828125
-0.01446533203125
-0.00787353515625
-0.0025634765624999996
-0.0054931640625
-0.00732421875
-0.00677490234375
-0.0076904296875
0.0012817382812499998
-0.0025634765624999996
-0.005126953124999999
-0.02197265625
-0.029296875
-0.01812744140625
-0.016113281249999997
-0.02105712890625
-0.02178955078125
-0.0113525390625
-0.018310546875
-0.00787353515625
-0.011718749999999998
-0.00274658203125
0.003662109375
0.0034790039062499996
-0.00018310546874999997
-0.00164794921875
-0.00164794921875
0.00531005859375
-0.00714111328125
-0.026733398437499997
-0.044677734375
-0.03570556640625
-0.022705078125
-0.0032958984375
0.052734375
0.14520263671874997
0.24682617187499997
0.34442138671874994
0.4595947265625
0.57403564453125
0.664306640625
0.7884521484375
0.9664306640624999
1.141845703125
1.1945800781249998
1.099365234375
0.8060302734375
0.33984375
-0.065185546875
-0.32373046874999994
-0.42517089843749994
-0.42224121093749994
-0.37994384765625
-0.3193359375
-0.26019287109375
-0.19097900390624997
-0.14611816406249997
-0.13659667968749997
-0.13348388671875
-0.12487792968749999
-0.10949707031249999
-0.10693359374999999
-0.11370849609374999
-0.1116943359375
-0.12213134765625
-0.13128662109375
-0.12414550781250001
-0.11663818359374999
-0.11242675781249999
-0.1079864501953125
-0.11370849609374999
-0.1116943359375
-0.1109619140625
-0.1256103515625
-0.12103271484374997
-0.109130859375
-0.1029052734375
-0.10748291015625
-0.10748291015625
-0.09320068359375
-0.084228515625
-0.08660888671874999
-0.085693359375
-0.087158203125
-0.07910156249999999
-0.0787353515625
-0.087158203125
-0.0875244140625
-0.0875244140625
-0.09832763671875
-0.08953857421874999
-0.085693359375
-0.0838623046875
-0.07635498046875
-0.07965087890625
-0.07653808593749999
-0.07397460937499999
-0.06591796875
-0.06738281249999999
-0.06591796875
-0.05035400390625
-0.0457763671875
-0.04687499999999999
-0.047607421875
-0.0501708984375
-0.052734375
-0.04925537109374999
-0.05438232421874999
-0.04815673828125
-0.04852294921875
-0.04779052734374999
-0.03881835937499999
-0.0325927734375
-0.029296875
-0.0435791015625
-0.04742431640624999
-0.04229736328125
-0.0311279296875
-0.03131103515625
-0.03515625
-0.03533935546875
-0.03314208984374999
-0.01116943359375
-0.011718749999999998
-0.015014648437499998
-0.023071289062499997
-0.005859374999999999
0.00311279296875
-0.002197265625
-0.01885986328125
-0.0223388671875
-0.02618408203125
-0.0274658203125
-0.0263671875
-0.03021240234375
-0.03900146484375
-0.0362548828125
-0.02838134765625
-0.023071289062499997
-0.0179443359375
-0.01190185546875
-0.01904296875
-0.03936767578125
-0.0501708984375
-0.0457763671875
-0.0428466796875
-0.0399169921875
-0.03405761718749999
-0.02252197265625
-0.019775390624999997
-0.026916503906249997
-0.023345947265625
-0.0020141601562499996
0.0087890625
0.004028320312499999
0.0029296874999999996
0.0034790039062499996
-0.00018310546874999997
0.006958007812499999
0.010253906249999998
0.008056640624999998
0.01629638671875
0.013366699218749998
0.00897216796875
0.005859374999999999
0.010986328125
0.00732421875
0.0076904296875
0.00054931640625
-0.0062255859375
0.002197265625
0.0029296874999999996
-0.004028320312499999
-0.010986328125
-0.01812744140625
-0.010253906249999998
-0.02490234375
-0.029296875
-0.0157470703125
-0.019409179687499997
-0.023986816406249997
-0.028747558593750003
-0.024169921874999997
-0.017578125
-0.027648925781249997
-0.03222656249999999
-0.03717041015625
-0.03240966796875
-0.019775390624999997
-0.0164794921875
-0.0157470703125
-0.0172119140625
-0.0172119140625
-0.017578125
-0.0238037109375
-0.023254394531249997
-0.0135498046875
-0.015930175781249997
-0.0142822265625
-0.015014648437499998
-0.024536132812499997
-0.029296875
-0.0333251953125
-0.027099609375
-0.02252197265625
-0.015930175781249997
-0.01885986328125
-0.031494140625
-0.03076171875
-0.03881835937499999
-0.03570556640625
-0.030029296874999997
-0.0289306640625
-0.03314208984374999
-0.034423828125
-0.043212890625
-0.04870605468749999
-0.0289306640625
-0.023254394531249997
-0.0223388671875
-0.030395507812499997
-0.034423828125
-0.027099609375
-0.023254394531249997
-0.02618408203125
-0.02508544921875
-0.01922607421875
-0.020507812499999997
-0.02471923828125
-0.026733398437499997
-0.0380859375
-0.03863525390625
-0.03387451171875
-0.0260009765625
-0.01318359375
-0.017578125
-0.028564453125
-0.03350830078124999
-0.0260009765625
-0.02838134765625
-0.01739501953125
-0.009887695312499998
-0.009887695312499998
-0.0135498046875
-0.00677490234375
-0.014831542968750002
-0.01885986328125
-0.02105712890625
-0.020324707031249997
-0.01318359375
-0.01812744140625
-0.015380859375
0.00091552734375
0.0029296874999999996
-0.00457763671875
-0.0087890625
-0.00933837890625
-0.013916015624999998
-0.0142822265625
-0.01318359375
-0.0032958984375
0.0062255859375
0.00714111328125
0.020324707031249997
0.020690917968749997
0.016113281249999997
0.02838134765625
0.0325927734375
0.04925537109374999
0.06463623046875
0.06280517578125
0.05639648437499999
0.05694580078124999
0.0399169921875
0.03405761718749999
0.0362548828125
0.025817871093749997
0.019409179687499997
0.009887695312499998
-0.003662109375
-0.004943847656249999
-0.00164794921875
0.0
-0.005859374999999999
-0.01556396484375
-0.02545166015625
-0.030944824218749993
-0.0252685546875
-0.02178955078125
-0.02288818359375
-0.021240234375
-0.01318359375
-0.012451171875
-0.01556396484375
-0.010253906249999998
-0.008422851562499998
-0.00677490234375
-0.0054931640625
-0.00567626953125
-0.016845703124999997
-0.0238037109375
-0.027832031249999997
-0.023437499999999997
-0.009521484375
0.004028320312499999
0.0032958984375
-0.0025634765624999996
-0.00439453125
-0.00640869140625
-0.018310546875
-0.03405761718749999
-0.03698730468749999
-0.0311279296875
-0.0091552734375
0.01812744140625
0.0589599609375
0.12542724609375
0.2105712890625
0.3072509765625
0.41656494140625
0.539794921875
0.6544189453125
0.7803955078124999
0.9287109375
1.0872802734374998
1.168212890625
1.13525390625
0.91259765625
0.4921875
0.0703125
-0.22998046875000003
-0.38104248046874994
-0.4090576171875
-0.37097167968749994
-0.30798339843749994
-0.2435302734375
-0.1893310546875
-0.1387939453125
-0.12725830078125
-0.11846923828124999
-0.11553955078124999
-0.11132812499999999
-0.11279296874999999
-0.1160888671875
-0.1175537109375
-0.12158203124999999
-0.12158203124999999
-0.12414550781250001
-0.12194824218749999
-0.11572265625
-0.11132812499999999
-0.10986328125
-0.10510253906249999
-0.09777832031249999
-0.08624267578125
-0.08203124999999999
-0.08862304687499999
-0.100341796875
-0.11810302734375
-0.11590576171875
-0.10784912109375
-0.1025390625
-0.09576416015625
-0.09411621093749999
-0.09503173828125
-0.08001708984375
-0.071044921875
-0.07196044921874999
-0.0706787109375
-0.0703125
-0.0531005859375
-0.05346679687499999
-0.0692138671875
-0.06903076171875
-0.062255859375
-0.0523681640625
-0.05987548828124999
-0.06683349609375
-0.05603027343749999
-0.05218505859375
-0.04064941406249999
-0.03186035156249999
-0.027648925781249997
-0.02655029296875
-0.029663085937500003
-0.03424072265625
-0.03790283203124999
-0.03240966796875
-0.0355224609375
-0.0311279296875
-0.026916503906249997
-0.03643798828125
-0.04064941406249999
-0.03497314453125
-0.027099609375
-0.026916503906249997
-0.03076171875
-0.02655029296875
-0.03186035156249999
-0.027099609375
-0.012268066406249998
-0.0091552734375
-0.00677490234375
-0.00164794921875
0.00238037109375
-0.0029296874999999996
-0.00274658203125
-0.00091552734375
-0.00311279296875
0.014831542968750002
0.01318359375
0.011718749999999998
0.010437011718749998
0.009704589843749998
0.004943847656249999
0.003662109375
0.008056640624999998
0.00567626953125
0.003662109375
0.0025634765624999996
-0.0019683837890625
-0.005126953124999999
-0.00531005859375
0.00311279296875
0.010253906249999998
0.020324707031249997
0.02362060546875
0.0274658203125
0.02471923828125
0.03240966796875
0.03515625
0.03057861328125
0.0362548828125
0.04632568359375
0.04064941406249999
0.03497314453125
0.0494384765625
0.05383300781249999
0.05419921875
0.06024169921875
0.07232666015625
0.076904296875
0.066650390625
0.06079101562499999
0.06628417968749999
0.06628417968749999
0.0501708984375
0.05255126953124999
0.04870605468749999
0.043212890625
0.03057861328125
0.025634765625
0.03021240234375
0.035888671875
0.02618408203125
0.02947998046875
0.030395507812499997
0.03222656249999999
0.032958984375
0.0311279296875
0.030029296874999997
0.03076171875
0.03076171875
0.0223388671875
0.017578125
0.01739501953125
0.0142822265625
0.015197753906249998
0.0172119140625
0.01739501953125
0.01318359375
0.0186767578125
0.025817871093749997
0.0186767578125
0.005859374999999999
0.006591796875
0.0128173828125
0.0128173828125
0.015197753906249998
0.020690917968749997
0.019409179687499997
0.01300048828125
0.004943847656249999
0.010253906249999998
0.01556396484375
0.0157470703125
0.0032958984375
-0.00238037109375
0.00531005859375
0.008422851562499998
0.0047607421875
0.00823974609375
0.020507812499999997
0.02142333984375
0.012084960937499998
0.003662109375
0.003662109375
-0.00036621093749999995
-0.00567626953125
-0.004943847656249999
0.0010986328125
0.00567626953125
0.00714111328125
0.0047607421875
0.00238037109375
0.00732421875
0.01812744140625
0.020690917968749997
0.016845703124999997
0.017578125
0.02288818359375
0.0216064453125
0.0186767578125
0.01922607421875
0.019775390624999997
0.01300048828125
0.00640869140625
0.010986328125
0.018310546875
0.01776123046875
0.003662109375
0.005859374999999999
0.002197265625
0.0034790039062499996
-0.0012817382812499998
0.0054931640625
0.0010986328125
-0.009521484375
-0.0142822265625
0.00457763671875
0.02178955078125
0.0263671875
0.0347900390625
0.03881835937499999
0.028564453125
0.023986816406249997
0.019775390624999997
0.00732421875
0.0032958984375
0.007507324218749999
0.0113525390625
0.013916015624999998
0.01812744140625
0.0260009765625
0.03405761718749999
0.03863525390625
0.0531005859375
0.05731201171874999
0.05438232421874999
0.06573486328125
0.07763671874999999
0.08148193359375
0.07635498046875
0.07580566406249999
0.05804443359375
0.04614257812499999
0.03222656249999999
0.0186767578125
0.0135498046875
0.015014648437499998
0.00677490234375
0.0034790039062499996
-0.00091552734375
-0.00238037109375
-0.0032958984375
-0.01116943359375
-0.0087890625
-0.012268066406249998
-0.016845703124999997
-0.010253906249999998
-0.009704589843749998
-0.0106201171875
-0.01812744140625
-0.015930175781249997
-0.014831542968750002
-0.01116943359375
-0.01263427734375
-0.011718749999999998
-0.00933837890625
-0.01318359375
-0.020690917968749997
-0.0179443359375
-0.00384521484375
0.005859374999999999
0.0
-0.008056640624999998
-0.010986328125
-0.008056640624999998
-0.01007080078125
-0.02142333984375
-0.03167724609375
-0.03863525390625
-0.043212890625
-0.03918457031249999
-0.02362060546875
0.004211425781249999
0.03460693359375
0.098876953125
0.17687988281249997
0.267333984375
0.38818359375
0.51910400390625
0.6240234375
0.7386474609374999
0.888427734375
1.0477294921875
1.1228027343749998
1.0715332031249998
0.8393554687499999
0.41033935546874994
0.012084960937499998
-0.24206542968749994
-0.36163330078125
-0.38525390625
-0.35449218749999994
-0.3094482421875
-0.25250244140625
-0.19866943359375
-0.1549072265625
-0.12579345703125
-0.1142578125
-0.107940673828125
-0.099609375
-0.1014404296875
-0.10693359374999999
-0.1142578125
-0.1116943359375
-0.106201171875
-0.11260986328125
-0.11279296874999999
-0.1083984375
-0.1065673828125
-0.1043701171875
-0.1025390625
-0.1007080078125
-0.0970458984375
-0.08953857421874999
-0.0933837890625
-0.094482421875
-0.09484863281249999
-0.0919189453125
-0.0853271484375
-0.07946777343749999
-0.06756591796875
-0.061889648437499986
-0.0615234375
-0.0640869140625
-0.06463623046875
-0.0648193359375
-0.07397460937499999
-0.0692138671875
-0.05767822265625
-0.05566406249999999
-0.0604248046875
-0.066650390625
-0.05841064453125001
-0.062255859375
-0.05950927734375
-0.05731201171874999
-0.05401611328125
-0.04797363281249999
-0.04486083984375
-0.0384521484375
-0.040283203125
-0.04614257812499999
-0.0523681640625
-0.054931640625
-0.050079345703125
-0.04797363281249999
-0.04833984374999999
-0.0509033203125
-0.0509033203125
-0.04486083984375
-0.04376220703125
-0.040283203125
-0.03643798828125
-0.03369140624999999
-0.0289306640625
-0.030395507812499997
-0.027648925781249997
-0.0216064453125
-0.023437499999999997
-0.015014648437499998
-0.012451171875
-0.017028808593749997
-0.01556396484375
-0.011718749999999998
-0.013366699218749998
-0.012084960937499998
-0.00714111328125
-0.0054931640625
-0.003662109375
-0.006591796875
-0.0135498046875
-0.0164794921875
-0.027648925781249997
-0.027099609375
-0.017578125
-0.016113281249999997
-0.01776123046875
-0.02197265625
-0.017578125
-0.012451171875
-0.008422851562499998
-0.01190185546875
-0.009521484375
-0.0054931640625
-0.00018310546874999997
0.0012817382812499998
0.0029296874999999996
0.006958007812499999
0.006958007812499999
0.016113281249999997
0.021240234375
0.01904296875
0.024353027343749997
0.023986816406249997
0.01904296875
0.025634765625
0.028198242187499997
0.0238037109375
0.018310546875
0.0172119140625
0.016113281249999997
0.015380859375
0.02105712890625
0.017578125
0.009887695312499998
-0.00018310546874999997
-0.011718749999999998
-0.009887695312499998
-0.00714111328125
-0.0091552734375
-0.01263427734375
-0.01446533203125
-0.019409179687499997
-0.0201416015625
-0.0333251953125
-0.04174804687499999
-0.04248046875
-0.040283203125
-0.03240966796875
-0.026733398437499997
-0.031494140625
-0.04138183593749999
-0.04486083984375
-0.04248046875
-0.0384521484375
-0.040283203125
-0.04852294921875
-0.05163574218749999
-0.05218505859375
-0.05566406249999999
-0.05438232421874999
-0.054931640625
-0.0567626953125
-0.05566406249999999
-0.05566406249999999
-0.0596923828125
-0.06097412109374999
-0.05438232421874999
-0.04797363281249999
-0.04669189453125
-0.0457763671875
-0.0472412109375
-0.0450439453125
-0.04650878906249999
-0.05126953125
-0.05511474609374999
-0.05181884765625
-0.0472412109375
-0.04339599609375
-0.04174804687499999
-0.0450439453125
-0.04595947265625
-0.04595947265625
-0.05072021484375
-0.05163574218749999
-0.0498046875
-0.0501708984375
-0.05401611328125
-0.05822753906249999
-0.05712890625
-0.06170654296874999
-0.05712890625
-0.04742431640624999
-0.04412841796875
-0.04669189453125
-0.04376220703125
-0.04174804687499999
-0.04138183593749999
-0.04669189453125
-0.0450439453125
-0.04302978515625
-0.037353515625
-0.03204345703125
-0.030395507812499997
-0.0289306640625
-0.03021240234375
-0.03973388671874999
-0.044677734375
-0.0523681640625
-0.0531005859375
-0.0567626953125
-0.0545654296875
-0.04962158203125
-0.05218505859375
-0.04541015625
-0.050537109375
-0.05529785156249999
-0.05438232421874999
-0.05584716796875
-0.05163574218749999
-0.04248046875
-0.03662109375
-0.03533935546875
-0.034423828125
-0.03460693359375
-0.0260009765625
-0.016113281249999997
-0.00787353515625
-0.0029296874999999996
0.0010986328125
0.006958007812499999
0.010437011718749998
0.0164794921875
0.0274658203125
0.02655029296875
0.02197265625
0.020690917968749997
0.01739501953125
0.00640869140625
-0.00787353515625
-0.021240234375
-0.02508544921875
-0.02947998046875
-0.03936767578125
-0.04669189453125
-0.04779052734374999
-0.04595947265625
-0.04229736328125
-0.037353515625
-0.03277587890624999
-0.03881835937499999
-0.04339599609375
-0.0435791015625
-0.04541015625
-0.0435791015625
-0.04669189453125
-0.04797363281249999
-0.04101562499999999
-0.03350830078124999
-0.02471923828125
-0.015197753906249998
-0.023071289062499997
-0.029296875
-0.03021240234375
-0.0333251953125
-0.030944824218749993
-0.03167724609375
-0.04248046875
-0.0435791015625
-0.04248046875
-0.0450439453125
-0.0498046875
-0.0604248046875
-0.08184814453125
-0.08670043945312499
-0.076904296875
-0.06591796875
-0.05383300781249999
-0.030395507812499997
0.0186767578125
0.09320068359375
0.1739501953125
0.2728271484375
0.40539550781249994
0.542724609375
0.6632080078124999
0.7987060546874999
0.9574584960937501
1.0850830078125
1.1235351562499998
1.0039672851562498
0.6474609374999999
0.17138671875
-0.17834472656249997
-0.35540771484374994
-0.43048095703124994
-0.44091796874999994
-0.41546630859374994
-0.36309814453125
-0.2984619140625
-0.24041748046874997
-0.1900634765625
-0.15765380859374997
-0.1380615234375
-0.1329345703125
-0.122314453125
-0.11022949218749999
-0.10675048828125
-0.10693359374999999
-0.10675048828125
-0.1080322265625
-0.10894775390625
-0.10949707031249999
-0.1109619140625
-0.10876464843749999
-0.109130859375
-0.11187744140625
-0.10766601562499999
-0.1058349609375
-0.10235595703124999
-0.09063720703125
-0.0875244140625
-0.08203124999999999
-0.076904296875
-0.07305908203124999
-0.07452392578124999
-0.071044921875
-0.07232666015625
-0.0823974609375
-0.08624267578125
-0.08935546875
-0.08312988281249999
-0.076171875
-0.06884765625
-0.06024169921875
-0.05419921875
-0.05108642578125
-0.0523681640625
-0.04962158203125
-0.0509033203125
-0.052734375
-0.04705810546874999
-0.03918457031249999
-0.03057861328125
-0.03167724609375
-0.0333251953125
-0.03222656249999999
-0.04119873046875
-0.04248046875
-0.03698730468749999
-0.029663085937500003
-0.019592285156249997
-0.00677490234375
0.0029296874999999996
0.00640869140625
0.0018310546875
-0.006042480468749999
-0.00823974609375
-0.00714111328125
-0.005126953124999999
-0.006591796875
-0.0054931640625
-0.00036621093749999995
0.00732421875
0.0146484375
0.01629638671875
0.015380859375
0.0135498046875
0.012451171875
0.010437011718749998
0.0087890625
0.01190185546875
0.016113281249999997
0.012084960937499998
0.00311279296875
0.002197265625
0.00732421875
0.006591796875
-0.0018310546875
-0.005859374999999999
-0.00531005859375
-0.0047607421875
-0.0014648437499999998
-0.00238037109375
-0.00860595703125
-0.012451171875
-0.0164794921875
-0.0157470703125
-0.018310546875
-0.016113281249999997
-0.0164794921875
-0.013916015624999998
-0.006958007812499999
-0.0034790039062499996
-0.0010986328125
0.0014648437499999998
0.012451171875
0.0179443359375
0.022155761718749997
0.026916503906249997
0.0380859375
0.04193115234375
0.04156494140624999
0.04083251953124999
0.0311279296875
0.02655029296875
0.027648925781249997
0.0274658203125
0.0216064453125
0.0238037109375
0.02471923828125
0.023986816406249997
0.017028808593749997
0.004943847656249999
-0.00933837890625
-0.010986328125
-0.01318359375
-0.0146484375
-0.010437011718749998
-0.0091552734375
-0.0001373291015625
0.0062255859375
0.0012817382812499998
-0.0113525390625
-0.0113525390625
-0.0135498046875
-0.015014648437499998
-0.0186767578125
-0.01995849609375
-0.01885986328125
-0.0146484375
-0.018493652343749997
-0.025634765625
-0.027832031249999997
-0.027648925781249997
-0.0186767578125
-0.0106201171875
-0.009887695312499998
-0.01080322265625
-0.016113281249999997
-0.024536132812499997
-0.027099609375
-0.03314208984374999
-0.04614257812499999
-0.052001953125
-0.0494384765625
-0.0421142578125
-0.03515625
-0.0311279296875
-0.025634765625
-0.01904296875
-0.015380859375
-0.011535644531249998
-0.008422851562499998
-0.00787353515625
-0.0125885009765625
-0.0142822265625
-0.01776123046875
-0.020507812499999997
-0.0172119140625
-0.0201416015625
-0.0216064453125
-0.01629638671875
-0.013366699218749998
-0.015380859375
-0.0179443359375
-0.01904296875
-0.026916503906249997
-0.03497314453125
-0.027648925781249997
-0.0289306640625
-0.02947998046875
-0.023437499999999997
-0.01776123046875
-0.0128173828125
-0.011718749999999998
-0.0186767578125
-0.028564453125
-0.025634765625
-0.023986816406249997
-0.025634765625
-0.021240234375
-0.015930175781249997
-0.01629638671875
-0.012268066406249998
-0.0076904296875
-0.006042480468749999
-0.008056640624999998
-0.00457763671875
-0.00439453125
-0.0062255859375
-0.0025634765624999996
0.0007324218749999999
0.0106201171875
0.0113525390625
0.0106201171875
0.011535644531249998
0.015197753906249998
0.02490234375
0.0380859375
0.0380859375
0.04138183593749999
0.04101562499999999
0.03076171875
0.020874023437499997
0.015930175781249997
0.0062255859375
0.0014648437499999998
0.0012817382812499998
-0.00732421875
-0.01556396484375
-0.0172119140625
-0.022705078125
-0.02655029296875
-0.02545166015625
-0.024169921874999997
-0.016845703124999997
-0.017028808593749997
-0.0146484375
-0.0128173828125
-0.020690917968749997
-0.02838134765625
-0.0252685546875
-0.02252197265625
-0.016113281249999997
-0.011810302734375
-0.00054931640625
0.006042480468749999
0.00238037109375
-0.00164794921875
-0.008422851562499998
-0.018493652343749997
-0.016113281249999997
-0.015197753906249998
-0.01318359375
-0.009887695312499998
-0.00054931640625
0.00036621093749999995
-0.01318359375
-0.028747558593750003
-0.05218505859375
-0.06683349609375
-0.06555175781249999
-0.05181884765625
-0.029800415039062497
0.003662109375
0.05566406249999999
0.1292724609375
0.21240234375
0.318603515625
0.4515380859375
0.5716552734374999
0.692138671875
0.8475952148437499
1.0334472656250002
1.1843261718749998
1.22332763671875
1.0784912109375
0.66668701171875
0.1614990234375
-0.1907958984375
-0.3658447265625
-0.42333984375
-0.4127197265625
-0.36328125
-0.303955078125
-0.24206542968749994
-0.17889404296875
-0.13055419921875003
-0.109130859375
-0.10968017578125
-0.11224365234375
-0.11682128906250001
-0.12451171875
-0.1300048828125
-0.13110351562499997
-0.12451171875
-0.122314453125
-0.120849609375
-0.12066650390624999
-0.12158203124999999
-0.12158203124999999
-0.11645507812499999
-0.1014404296875
-0.09851074218749999
-0.100341796875
-0.09906005859375
-0.091552734375
-0.09228515624999999
-0.09027099609374999
-0.0853271484375
-0.07653808593749999
-0.06884765625
-0.06097412109374999
-0.05822753906249999
-0.0626220703125
-0.07086181640624999
-0.07452392578124999
-0.07452392578124999
-0.06939697265625
-0.0648193359375
-0.06298828125
-0.06317138671875
-0.05584716796875
-0.0523681640625
-0.05419921875
-0.05364990234375
-0.05438232421874999
-0.0523681640625
-0.04833984374999999
-0.0457763671875
-0.04595947265625
-0.0457763671875
-0.04302978515625
-0.04101562499999999
-0.0355224609375
-0.02984619140625
-0.02618408203125
-0.020874023437499997
-0.0216064453125
-0.0186767578125
-0.0054931640625
0.00439453125
0.003662109375
-0.0025634765624999996
-0.00439453125
0.00091552734375
0.004943847656249999
0.008056640624999998
0.0128173828125
0.0113525390625
0.009887695312499998
0.008056640624999998
-0.00054931640625
-0.0047607421875
0.0034790039062499996
0.01373291015625
0.017578125
0.01922607421875
0.01904296875
0.01556396484375
0.01318359375
0.008422851562499998
0.00823974609375
0.008056640624999998
0.0087890625
0.00732421875
0.005859374999999999
0.00531005859375
0.0032958984375
0.0025634765624999996
-0.0025634765624999996
-0.009521484375
-0.012451171875
-0.0172119140625
-0.0142822265625
-0.016113281249999997
-0.01904296875
-0.02252197265625
-0.024536132812499997
-0.020324707031249997
-0.01904296875
-0.015380859375
-0.010253906249999998
-0.006958007812499999
-0.0034790039062499996
0.004211425781249999
0.017578125
0.022155761718749997
0.029113769531249997
0.03881835937499999
0.0498046875
0.05712890625
0.0567626953125
0.04522705078124999
0.037353515625
0.0362548828125
0.030029296874999997
0.025817871093749997
0.02490234375
0.023986816406249997
0.0260009765625
0.025634765625
0.02490234375
0.02197265625
0.01885986328125
0.0142822265625
0.0062255859375
0.002197265625
-0.004211425781249999
-0.0076904296875
-0.00457763671875
-0.00311279296875
0.00311279296875
0.010253906249999998
0.01190185546875
0.011718749999999998
0.00439453125
-0.0014648437499999998
-0.0062255859375
-0.00439453125
-0.0029296874999999996
-0.00054931640625
0.004211425781249999
0.005126953124999999
0.002197265625
0.0047607421875
0.00439453125
0.0020141601562499996
0.0047607421875
0.0062255859375
0.014099121093749998
0.0179443359375
0.017578125
0.01629638671875
0.011718749999999998
0.0034790039062499996
-0.002197265625
0.00091552734375
0.00018310546874999997
-0.0020141601562499996
-0.01080322265625
-0.00897216796875
-0.0010986328125
0.00238037109375
0.0012817382812499998
-0.0034790039062499996
-0.0005035400390624999
0.0029296874999999996
-0.00036621093749999995
0.0007324218749999999
0.0025634765624999996
0.0032958984375
0.0018310546875
-0.00567626953125
-0.0135498046875
-0.0164337158203125
-0.018310546875
-0.012451171875
-0.01007080078125
-0.012268066406249998
-0.01300048828125
-0.0076904296875
-0.0014648437499999998
0.0029296874999999996
0.00860595703125
0.0034790039062499996
0.0032958984375
0.0032958984375
0.00732421875
0.01116943359375
0.011718749999999998
0.005126953124999999
0.004211425781249999
0.008056640624999998
0.02105712890625
0.04248046875
0.05383300781249999
0.0545654296875
0.05474853515624999
0.05383300781249999
0.05035400390625
0.04669189453125
0.03424072265625
0.024169921874999997
0.0146484375
0.0047607421875
0.0012817382812499998
-0.0020141601562499996
-0.011535644531249998
-0.017578125
-0.017578125
-0.020324707031249997
-0.0164794921875
-0.012084960937499998
-0.015380859375
-0.018310546875
-0.0216064453125
-0.024169921874999997
-0.02252197265625
-0.018310546875
-0.0146484375
-0.011535644531249998
-0.0113525390625
-0.012268066406249998
-0.00457763671875
-0.003662109375
0.0014648437499999998
0.0020141601562499996
-0.004211425781249999
-0.00439453125
-0.006042480468749999
-0.00640869140625
-0.0106201171875
-0.01080322265625
-0.010986328125
-0.015930175781249997
-0.0233917236328125
-0.03900146484375
-0.05932617187500001
-0.07379150390624999
-0.07818603515625
-0.06939697265625
-0.04522705078124999
0.0113525390625
0.09741210937499999
0.18823242187499997
0.2900390625
0.41308593749999994
0.532470703125
0.64453125
0.78369140625
0.9554443359374999
1.10028076171875
1.15576171875
1.0693359375
0.7331542968749999
0.26037597656249994
-0.10748291015625
-0.30084228515624994
-0.36968994140624994
-0.3603515625
-0.32244873046874994
-0.26495361328124994
-0.1981201171875
-0.1409912109375
-0.106201171875
-0.0919189453125
-0.08349609374999999
-0.085693359375
-0.0845947265625
-0.08020019531249999
-0.07232666015625
-0.071044921875
-0.07580566406249999
-0.07891845703125
-0.0787353515625
-0.07305908203124999
-0.0736083984375
-0.079833984375
-0.08038330078124999
-0.08038330078124999
-0.0787353515625
-0.0732421875
-0.0677490234375
-0.06610107421875
-0.07232666015625
-0.06719970703125
-0.05566406249999999
-0.05163574218749999
-0.0531005859375
-0.05328369140625
-0.05364990234375
-0.04962158203125
-0.044677734375
-0.04522705078124999
-0.0380859375
-0.024536132812499997
-0.024353027343749997
-0.0355224609375
-0.04156494140624999
-0.0435791015625
-0.04449462890625
-0.040283203125
-0.034423828125
-0.0311279296875
-0.026733398437499997
-0.02545166015625
-0.02178955078125
-0.0238037109375
-0.02838134765625
-0.03222656249999999
-0.03369140624999999
-0.03076171875
-0.02197265625
-0.01885986328125
-0.012084960937499998
-0.00274658203125
0.00384521484375
0.00677490234375
0.008056640624999998
0.0018310546875
-0.0034790039062499996
-0.003662109375
-0.00732421875
-0.0032958984375
0.0054931640625
0.00732421875
0.004943847656249999
0.00732421875
0.01318359375
0.0164794921875
0.01904296875
0.022155761718749997
0.02197265625
0.014099121093749998
0.009887695312499998
0.009521484375
0.00787353515625
0.00732421875
0.010253906249999998
0.014831542968750002
0.01776123046875
0.016845703124999997
0.012268066406249998
0.010437011718749998
0.005859374999999999
-0.00054931640625
-0.0054931640625
-0.005859374999999999
-0.0106201171875
-0.01318359375
-0.01776123046875
-0.01904296875
-0.0186767578125
-0.018447875976562497
-0.01446533203125
-0.0113525390625
-0.0113525390625
-0.00439453125
0.0034790039062499996
0.00640869140625
0.013916015624999998
0.022705078125
0.0333251953125
0.03955078124999999
0.04193115234375
0.0325927734375
0.03607177734375
0.0380859375
0.0355224609375
0.028015136718749997
0.026916503906249997
0.023986816406249997
0.015014648437499998
0.01629638671875
0.022705078125
0.02508544921875
0.02508544921875
0.03240966796875
0.025634765625
0.023254394531249997
0.019592285156249997
0.0087890625
0.0076904296875
0.006958007812499999
0.008422851562499998
0.0087890625
0.011535644531249998
0.01666259765625
0.0186767578125
0.018310546875
0.01885986328125
0.018310546875
0.00732421875
0.0014648437499999998
0.0025634765624999996
0.00787353515625
0.0128173828125
0.0128173828125
0.00732421875
0.0113525390625
0.018493652343749997
0.018310546875
0.01904296875
0.02178955078125
0.023437499999999997
0.02838134765625
0.03076171875
0.035888671875
0.03570556640625
0.03405761718749999
0.029296875
0.023254394531249997
0.020874023437499997
0.01263427734375
0.00787353515625
0.004943847656249999
0.0032958984375
0.00732421875
0.012268066406249998
0.013916015624999998
0.0164794921875
0.0164794921875
0.01373291015625
0.015197753906249998
0.01629638671875
0.017028808593749997
0.018310546875
0.013366699218749998
0.015930175781249997
0.0172119140625
0.01922607421875
0.014831542968750002
0.0142822265625
0.013916015624999998
0.011718749999999998
0.012084960937499998
0.009887695312499998
0.0076904296875
0.0091552734375
0.00860595703125
0.010437011718749998
0.0172119140625
0.024536132812499997
0.03277587890624999
0.0428466796875
0.05035400390625
0.05364990234375
0.0509033203125
0.04486083984375
0.04266357421875
0.052734375
0.0615234375
0.06738281249999999
0.06298828125
0.05914306640624999
0.05639648437499999
0.05072021484375
0.04101562499999999
0.03369140624999999
0.02508544921875
0.01885986328125
0.0113525390625
0.0025634765624999996
0.006591796875
0.00274658203125
-0.00036621093749999995
-0.00036621093749999995
0.009521484375
0.014099121093749998
0.009887695312499998
0.0087890625
0.00054931640625
-0.00091552734375
0.0012817382812499998
0.0012817382812499998
0.00036621093749999995
-0.0025634765624999996
-0.00311279296875
-0.00677490234375
-0.0034790039062499996
0.00457763671875
0.00457763671875
0.00036621093749999995
0.0007324218749999999
0.0062255859375
0.010253906249999998
0.015014648437499998
0.011718749999999998
0.008056640624999998
0.0047607421875
-0.0034790039062499996
-0.014099121093749998
-0.03643798828125
-0.05914306640624999
-0.06628417968749999
-0.06646728515625
-0.05584716796875
-0.03497314453125
0.022155761718749997
0.101806640625
0.19372558593749997
0.30230712890624994
0.437255859375
0.5610351562499999
0.67987060546875
0.82855224609375
1.0052490234375
1.1455078125
1.1868896484374998
1.0817871093749998
0.7419433593749999
0.28436279296875
-0.07342529296875
-0.27227783203124994
-0.35302734375
-0.33801269531249994
-0.29205322265625
-0.23345947265625
-0.1728515625
-0.1142578125
-0.08953857421874999
-0.087158203125
-0.08843994140624999
-0.09320068359375
-0.098876953125
-0.09649658203125
-0.09356689453125
-0.09118652343749999
-0.09649658203125
-0.098876953125
-0.09320068359375
-0.08990478515624999
-0.08807373046875
-0.0908203125
-0.09063720703125
-0.0823974609375
-0.0728759765625
-0.06793212890625
-0.07177734375
-0.0743408203125
-0.0703125
-0.06884765625
-0.06353759765625
-0.05804443359375
-0.05181884765625
-0.04998779296875
-0.05419921875
-0.05657958984374999
-0.05383300781249999
-0.05584716796875
-0.06719970703125
-0.075439453125
-0.07763671874999999
-0.07580566406249999
-0.0692138671875
-0.06298828125
-0.05932617187500001
-0.0615234375
-0.05548095703125
-0.05621337890624999
-0.05749511718750001
-0.05603027343749999
-0.047607421875
-0.04449462890625
-0.047607421875
-0.04632568359375
-0.04376220703125
-0.0377197265625
-0.02838134765625
-0.024536132812499997
-0.02545166015625
-0.0216064453125
-0.01922607421875
-0.021240234375
-0.020690917968749997
-0.018493652343749997
-0.0179443359375
-0.013366699218749998
-0.007507324218749999
-0.010253906249999998
-0.00823974609375
-0.006042480468749999
-0.004028320312499999
-0.006591796875
-0.009887695312499998
-0.0047607421875
-0.0091552734375
-0.00823974609375
-0.005126953124999999
-0.00823974609375
-0.0113525390625
-0.014831542968750002
-0.019775390624999997
-0.019409179687499997
-0.014831542968750002
-0.01812744140625
-0.018493652343749997
-0.012451171875
-0.0054931640625
-0.00439453125
-0.009887695312499998
-0.0186767578125
-0.01904296875
-0.027099609375
-0.0201416015625
-0.015930175781249997
-0.023254394531249997
-0.023254394531249997
-0.020507812499999997
-0.0179443359375
-0.0172119140625
-0.017578125
-0.019409179687499997
-0.015014648437499998
-0.016845703124999997
-0.012084960937499998
-0.002197265625
0.008056640624999998
0.0172119140625
0.024353027343749997
0.03076171875
0.035888671875
0.0494384765625
0.04742431640624999
0.04119873046875
0.03369140624999999
0.0238037109375
0.015930175781249997
0.0113525390625
0.0029296874999999996
0.0
-0.0062255859375
-0.0157470703125
-0.02197265625
-0.0252685546875
-0.028747558593750003
-0.027099609375
-0.02197265625
-0.016113281249999997
-0.009521484375
-0.00933837890625
-0.008422851562499998
-0.008422851562499998
-0.01446533203125
-0.03131103515625
-0.03973388671874999
-0.03222656249999999
-0.0260009765625
-0.03424072265625
-0.030029296874999997
-0.023437499999999997
-0.017028808593749997
-0.015197753906249998
-0.008056640624999998
-0.010986328125
-0.0142822265625
-0.012084960937499998
-0.004028320312499999
-0.0047607421875
-0.00732421875
-0.00860595703125
-0.007507324218749999
0.0010986328125
-0.00677490234375
-0.010253906249999998
-0.01263427734375
-0.010437011718749998
-0.0087890625
-0.02142333984375
-0.03076171875
-0.02947998046875
-0.0263671875
-0.03021240234375
-0.0252685546875
-0.009887695312499998
-0.01318359375
-0.0223388671875
-0.023071289062499997
-0.026916503906249997
-0.02545166015625
-0.026733398437499997
-0.03533935546875
-0.0263671875
-0.021240234375
-0.023071289062499997
-0.020324707031249997
-0.02197265625
-0.020874023437499997
-0.0216064453125
-0.019775390624999997
-0.02252197265625
-0.01263427734375
-0.01904296875
-0.019775390624999997
-0.02178955078125
-0.03222656249999999
-0.025634765625
-0.02105712890625
-0.012451171875
-0.00933837890625
-0.0091552734375
-0.0076904296875
-0.0091552734375
-0.01263427734375
-0.00732421875
-0.00164794921875
0.00439453125
0.015930175781249997
0.023071289062499997
0.023437499999999997
0.028564453125
0.02362060546875
0.016845703124999997
0.0201416015625
0.0142822265625
0.0289306640625
0.040283203125
0.054931640625
0.05126953125
0.04174804687499999
0.03222656249999999
0.022155761718749997
0.019409179687499997
0.0128173828125
0.00439453125
-0.00567626953125
-0.009887695312499998
-0.00091552734375
-0.010437011718749998
-0.012451171875
-0.01007080078125
-0.015380859375
-0.0260009765625
-0.034423828125
-0.0311279296875
-0.028015136718749997
-0.03204345703125
-0.03240966796875
-0.03057861328125
-0.0355224609375
-0.03790283203124999
-0.0311279296875
-0.0263671875
-0.0223388671875
-0.020507812499999997
-0.015930175781249997
-0.0164794921875
-0.016845703124999997
-0.0113525390625
-0.009887695312499998
-0.0128173828125
-0.020690917968749997
-0.027832031249999997
-0.030944824218749993
-0.030395507812499997
-0.0274658203125
-0.02838134765625
-0.03222656249999999
-0.04742431640624999
-0.0677490234375
-0.08514404296875
-0.08587646484374999
-0.0633544921875
-0.03973388671874999
0.00732421875
0.0897216796875
0.18951416015625
0.29296875
0.4248046875
0.5478515625
0.67144775390625
0.82598876953125
1.0048828125
1.12646484375
1.1433105468749998
1.014404296875
0.6610107421875
0.21258544921874997
-0.12011718749999999
-0.3094482421875
-0.3841552734375
-0.36859130859375
-0.32464599609375
-0.276123046875
-0.2156982421875
-0.1549072265625
-0.11572265625
-0.1058349609375
-0.10784912109375
-0.1072998046875
-0.09814453124999999
-0.09118652343749999
-0.09741210937499999
-0.11187744140625
-0.125244140625
-0.135498046875
-0.12872314453125
-0.113525390625
-0.10986328125
-0.11315917968749999
-0.1083984375
-0.10949707031249999
-0.1175537109375
-0.11737060546874999
-0.11993408203125
-0.10931396484375
-0.09521484375
-0.09374999999999999
-0.09301757812499999
-0.08184814453125
-0.07763671874999999
-0.07891845703125
-0.084228515625
-0.0885772705078125
-0.08935546875
-0.0875244140625
-0.087890625
-0.0853271484375
-0.084228515625
-0.07305908203124999
-0.0615234375
-0.0523681640625
-0.0596923828125
-0.061889648437499986
-0.06005859374999999
-0.052734375
-0.05163574218749999
-0.05218505859375
-0.05419921875
-0.05511474609374999
-0.05401611328125
-0.05108642578125
-0.052734375
-0.05163574218749999
-0.05108642578125
-0.05419921875
-0.05035400390625
-0.04248046875
-0.0377197265625
-0.032958984375
-0.030944824218749993
-0.032958984375
-0.03131103515625
-0.0238037109375
-0.030029296874999997
-0.02947998046875
-0.03955078124999999
-0.0362548828125
-0.0274658203125
-0.023254394531249997
-0.027832031249999997
-0.029113769531249997
-0.02947998046875
-0.022705078125
-0.017578125
-0.018493652343749997
-0.0142822265625
-0.00823974609375
-0.0029296874999999996
0.0010986328125
-0.004943847656249999
-0.0128173828125
-0.01739501953125
-0.019409179687499997
-0.01629638671875
-0.022155761718749997
-0.025634765625
-0.02545166015625
-0.02178955078125
-0.025634765625
-0.023437499999999997
-0.028015136718749997
-0.024536132812499997
-0.014831542968750002
0.004028320312499999
0.0
-0.010986328125
-0.02838134765625
-0.0238037109375
-0.0164794921875
-0.00714111328125
-0.006042480468749999
0.0032958984375
0.012451171875
0.017578125
0.02545166015625
0.028198242187499997
0.03057861328125
0.0238037109375
0.01812744140625
0.00732421875
0.007507324218749999
0.0087890625
0.0054931640625
0.00384521484375
-0.005126953124999999
-0.01007080078125
-0.006958007812499999
-0.006042480468749999
-0.00531005859375
0.0057220458984375
0.005859374999999999
0.00732421875
-0.00384521484375
-0.00311279296875
0.0062255859375
0.00897216796875
0.011718749999999998
0.008422851562499998
0.0076904296875
0.00933837890625
0.0087890625
0.00823974609375
0.00036621093749999995
-0.02490234375
-0.02252197265625
-0.009887695312499998
0.00091552734375
-0.0029296874999999996
0.0025634765624999996
0.003662109375
-0.00531005859375
-0.01300048828125
-0.01318359375
-0.015014648437499998
-0.013366699218749998
-0.0146484375
-0.018493652343749997
-0.027099609375
-0.027648925781249997
-0.02197265625
-0.01318359375
-0.0142822265625
-0.018310546875
-0.021240234375
-0.023437499999999997
-0.023986816406249997
-0.0223388671875
-0.028564453125
-0.03057861328125
-0.0238037109375
-0.01080322265625
-0.007507324218749999
-0.010253906249999998
-0.01318359375
-0.01629638671875
-0.0179443359375
-0.01373291015625
-0.0146484375
-0.0179443359375
-0.02252197265625
-0.015197753906249998
-0.012268066406249998
-0.00164794921875
-0.008056640624999998
-0.014099121093749998
-0.010437011718749998
-0.0029296874999999996
-0.0087890625
-0.015014648437499998
-0.024169921874999997
-0.024169921874999997
-0.01666259765625
-0.009521484375
-0.00018310546874999997
0.0076904296875
0.012451171875
0.01190185546875
0.01116943359375
0.0047607421875
0.0047607421875
0.00531005859375
0.0007324218749999999
0.008422851562499998
0.01116943359375
0.00714111328125
0.0076904296875
0.0018310546875
-0.0062255859375
-0.019592285156249997
-0.011718749999999998
-0.0020141601562499996
-0.0106201171875
-0.01556396484375
-0.0010986328125
-0.00164794921875
-0.004028320312499999
0.0010986328125
-0.00018310546874999997
0.0014648437499999998
0.0014648437499999998
-0.006591796875
-0.0012817382812499998
0.0007781982421875
0.0164794921875
0.017578125
0.0113525390625
0.0032958984375
0.00018310546874999997
0.021240234375
0.031494140625
0.0472412109375
0.05346679687499999
0.071044921875
0.0882568359375
0.0867919921875
0.08093261718749999
0.07177734375
0.0703125
0.06646728515625
0.06536865234375
0.050537109375
0.03515625
0.019775390624999997
0.0091552734375
-0.0047607421875
-0.009704589843749998
-0.015930175781249997
-0.0113525390625
-0.0012817382812499998
0.0012817382812499998
-0.008422851562499998
-0.021240234375
-0.01318359375
-0.00787353515625
-0.014099121093749998
-0.01007080078125
-0.0014648437499999998
0.005859374999999999
0.0010986328125
0.002197265625
-0.010253906249999998
0.0007324218749999999
0.01190185546875
0.01300048828125
0.0
-0.006042480468749999
0.008422851562499998
0.00933837890625
0.003662109375
0.006591796875
0.00036621093749999995
-0.00439453125
-0.0076904296875
-0.015014648437499998
-0.027832031249999997
-0.03900146484375
-0.0457763671875
-0.023071289062499997
0.01300048828125
0.044677734375
0.08953857421874999
0.16717529296875
0.24957275390624997
0.33398437499999994
0.4595947265625
0.5657958984375
0.6679687499999999
0.8049316406249999
0.9766845703124999
1.1136474609375
1.1455078125
1.0486450195312498
0.7492675781249999
0.3175048828125
-0.03753662109375
-0.2669677734375
-0.3760986328125
-0.35632324218749994
-0.31622314453124994
-0.276123046875
-0.2354736328125
-0.1959228515625
-0.14886474609374997
-0.12982177734375
-0.12268066406249999
-0.117919921875
-0.11572265625
-0.11682128906250001
-0.1083984375
-0.11022949218749999
-0.11004638671875
-0.09484863281249999
-0.0933837890625
-0.1021728515625
-0.10510253906249999
-0.0963134765625
-0.09741210937499999
-0.0970458984375
-0.07397460937499999
-0.08129882812499999
-0.09576416015625
-0.1065673828125
-0.1043701171875
-0.09301757812499999
-0.09374999999999999
-0.08551025390625
-0.08129882812499999
-0.079833984375
-0.07818603515625
-0.0732421875
-0.05932617187500001
-0.0604248046875
-0.05694580078124999
-0.05639648437499999
-0.06903076171875
-0.07525634765624999
-0.06738281249999999
-0.0728759765625
-0.07177734375
-0.0721435546875
-0.07672119140625
-0.08074951171875
-0.06976318359375
-0.05639648437499999
-0.04650878906249999
-0.0498046875
-0.04962158203125
-0.04833984374999999
-0.04779052734374999
-0.0509033203125
-0.04302978515625
-0.04083251953124999
-0.0439453125
-0.04376220703125
-0.04083251953124999
-0.03762817382812499
-0.02947998046875
-0.02618408203125
-0.024536132812499997
-0.028747558593750003
-0.0252685546875
-0.021240234375
-0.024353027343749997
-0.0223388671875
-0.02252197265625
-0.02252197265625
-0.020690917968749997
-0.01904296875
-0.019775390624999997
-0.018493652343749997
-0.0128173828125
-0.016113281249999997
-0.0113525390625
0.00311279296875
0.00732421875
0.00714111328125
0.0014648437499999998
-0.0062255859375
-0.00238037109375
-0.0032958984375
-0.00640869140625
-0.008422851562499998
-0.004898071289062499
0.00036621093749999995
0.005859374999999999
0.004028320312499999
-0.0007324218749999999
-0.0034790039062499996
-0.003662109375
-0.01629638671875
-0.027832031249999997
-0.037353515625
-0.03863525390625
-0.037353515625
-0.0289306640625
-0.010253906249999998
0.005126953124999999
0.0128173828125
0.014099121093749998
0.02471923828125
0.030029296874999997
0.0333251953125
0.028564453125
0.03698730468749999
0.0362548828125
0.03698730468749999
0.034423828125
0.0362548828125
0.03662109375
0.0325927734375
0.0289306640625
0.025634765625
0.020507812499999997
0.01812744140625
0.015014648437499998
0.0164794921875
0.020507812499999997
0.017578125
0.009521484375
0.004943847656249999
0.0014648437499999998
0.0
-0.0032958984375
-0.0034790039062499996
0.00238037109375
0.00933837890625
0.0029296874999999996
-0.00531005859375
-0.013458251953124998
-0.012451171875
-0.01885986328125
-0.019592285156249997
-0.015197753906249998
-0.013916015624999998
-0.01300048828125
-0.01263427734375
-0.018310546875
-0.020507812499999997
-0.0113525390625
-0.0076904296875
-0.0020141601562499996
-0.008056640624999998
-0.01300048828125
-0.012084960937499998
-0.01776123046875
-0.025817871093749997
-0.027648925781249997
-0.0289306640625
-0.02984619140625
-0.03405761718749999
-0.026916503906249997
-0.011535644531249998
-0.00036621093749999995
0.0032958984375
0.006042480468749999
0.0029296874999999996
-0.00384521484375
-0.01629638671875
-0.0263671875
-0.03222656249999999
-0.03863525390625
-0.04083251953124999
-0.04156494140624999
-0.04248046875
-0.04138183593749999
-0.03698730468749999
-0.03240966796875
-0.03021240234375
-0.03314208984374999
-0.026916503906249997
-0.025634765625
-0.030029296874999997
-0.04174804687499999
-0.0450439453125
-0.04650878906249999
-0.043212890625
-0.0421142578125
-0.04907226562499999
-0.04266357421875
-0.04302978515625
-0.03790283203124999
-0.03131103515625
-0.020507812499999997
-0.01446533203125
-0.012268066406249998
-0.0135498046875
-0.0142822265625
-0.01904296875
-0.021240234375
-0.023437499999999997
-0.017028808593749997
-0.01318359375
-0.0128173828125
-0.01080322265625
-0.023437499999999997
-0.04064941406249999
-0.04852294921875
-0.05419921875
-0.06060791015625
-0.06280517578125
-0.06170654296874999
-0.06207275390625001
-0.05914306640624999
-0.0498046875
-0.04248046875
-0.03021240234375
-0.02471923828125
-0.026916503906249997
-0.03497314453125
-0.0377197265625
-0.0355224609375
-0.04138183593749999
-0.04541015625
-0.03497314453125
-0.037353515625
-0.0567626953125
-0.0706787109375
-0.0567626953125
-0.04907226562499999
-0.04797363281249999
-0.0377197265625
-0.03460693359375
-0.027832031249999997
-0.020874023437499997
-0.020507812499999997
-0.01007080078125
0.011718749999999998
0.02252197265625
0.03222656249999999
0.01885986328125
0.027099609375
0.0457763671875
0.05621337890624999
0.04870605468749999
0.04266357421875
0.03222656249999999
0.0274658203125
0.01922607421875
0.00787353515625
-0.00640869140625
-0.03497314453125
-0.04815673828125
-0.028747558593750003
-0.019775390624999997
-0.030029296874999997
-0.044677734375
-0.06005859374999999
-0.05328369140625
-0.03717041015625
-0.0289306640625
-0.030944824218749993
-0.0135498046875
0.0014648437499999998
0.015930175781249997
0.03863525390625
0.04101562499999999
0.0289306640625
-0.00311279296875
-0.0186767578125
-0.0428466796875
-0.04302978515625
-0.029296875
-0.02618408203125
-0.020874023437499997
-0.020324707031249997
-0.0252685546875
-0.008422851562499998
0.01776123046875
0.02288818359375
0.03131103515625
0.0238037109375
0.02252197265625
0.01263427734375
-0.012268066406249998
-0.017578125
-0.004028320312499999
0.020324707031249997
0.021240234375
0.08001708984375
0.15765380859374997
0.23840332031249997
0.34680175781249994
0.48193359375
0.6024169921875
0.722900390625
0.84466552734375
1.025390625
1.168212890625
1.2022705078125
1.0726318359374998
0.68389892578125
0.205078125
-0.1446533203125
-0.3255615234375
-0.38378906249999994
-0.35174560546874994
-0.30303955078125
-0.25488281249999994
-0.21148681640625
-0.1673583984375
-0.12432861328125
-0.10949707031249999
-0.12249755859374999
-0.1314697265625
-0.1380615234375
-0.12377929687499997
-0.10491943359374999
-0.09814453124999999
-0.08001708984375
-0.07672119140625
-0.0692138671875
-0.06884765625
-0.06536865234375
-0.04449462890625
-0.0509033203125
-0.04833984374999999
-0.04907226562499999
-0.0289306640625
-0.008056640624999998
-0.012268066406249998
-0.01904296875
-0.03350830078124999
-0.04650878906249999
-0.0380859375
-0.03717041015625
-0.03222656249999999
-0.02984619140625
-0.02984619140625
-0.025817871093749997
-0.030944824218749993
-0.0179443359375
-0.013916015624999998
-0.03936767578125
-0.03204345703125
-0.03186035156249999
-0.04119873046875
-0.03900146484375
-0.017028808593749997
-0.017578125
-0.009521484375
0.0014648437499999998
0.009521484375
0.00897216796875
-0.00732421875
-0.00054931640625
0.0029296874999999996
0.00714111328125
0.02490234375
0.03405761718749999
0.03900146484375
0.031494140625
0.03680419921875
0.02838134765625
0.009521484375
0.0201416015625
0.04138183593749999
0.03717041015625
0.044677734375
0.03973388671874999
0.04431152343749999
0.03222656249999999
0.0172119140625
0.02490234375
0.0450439453125
0.03900146484375
0.03570556640625
0.0238037109375
0.00897216796875
0.024169921874999997
0.03881835937499999
0.04248046875
0.04248046875
0.04650878906249999
0.04852294921875
0.0408782958984375
0.0399169921875
0.04046630859374999
0.0325927734375
0.028747558593750003
0.03790283203124999
0.04064941406249999
0.0509033203125
0.05987548828124999
0.04302978515625
0.021240234375
0.027648925781249997
0.021240234375
0.016845703124999997
0.027648925781249997
0.03277587890624999
0.030395507812499997
0.0252685546875
0.029663085937500003
0.0135498046875
0.00640869140625
0.02618408203125
0.0355224609375
0.03076171875
0.029113769531249997
0.0333251953125
0.04339599609375
0.0311279296875
0.0263671875
0.047607421875
0.0626220703125
0.069580078125
0.06884765625
0.05163574218749999
0.04998779296875
0.04486083984375
0.02490234375
0.0146484375
0.03222656249999999
0.04742431640624999
0.03131103515625
0.02618408203125
0.025634765625
0.03167724609375
0.04266357421875
0.04632568359375
0.043212890625
0.03387451171875
0.0333251953125
0.0355224609375
0.04431152343749999
0.047607421875
0.029113769531249997
0.010986328125
0.012084960937499998
0.01116943359375
0.004028320312499999
-0.008422851562499998
-0.02618408203125
-0.031494140625
-0.027832031249999997
-0.013366699218749998
-0.010986328125
0.0142822265625
0.02471923828125
0.01629638671875
0.00439453125
-0.0128173828125
-0.02655029296875
-0.020874023437499997
0.0012817382812499998
0.03350830078124999
0.04486083984375
0.05603027343749999
0.03662109375
0.04010009765624999
0.03863525390625
0.0333251953125
0.0076904296875
-0.011718749999999998
-0.02105712890625
-0.01812744140625
-0.00091552734375
0.009887695312499998
0.01812744140625
0.014831542968750002
0.0018310546875
-0.00439453125
0.00567626953125
0.0020141601562499996
0.0
-0.015930175781249997
-0.019592285156249997
-0.01007080078125
-0.008422851562499998
-0.010253906249999998
-0.01080322265625
-0.010253906249999998
0.0010986328125
0.00091552734375
0.0029296874999999996
0.0034790039062499996
0.0012817382812499998
-0.00677490234375
-0.0029296874999999996
-0.00036621093749999995
-0.0010986328125
0.0179443359375
0.020690917968749997
0.01318359375
0.018493652343749997
0.004028320312499999
-0.009704589843749998
-0.021240234375
-0.02490234375
-0.0223388671875
-0.01300048828125
-0.0076904296875
0.00787353515625
0.0223388671875
0.02252197265625
0.022155761718749997
0.0252685546875
0.03240966796875
0.0238037109375
0.00311279296875
-0.01776123046875
-0.018310546875
-0.00732421875
-0.012268066406249998
-0.0087890625
-0.005859374999999999
-0.00311279296875
-0.00018310546874999997
0.00457763671875
0.015014648437499998
0.020874023437499997
0.03186035156249999
0.03497314453125
0.04302978515625
0.0703125
0.09283447265625
0.09320068359375
0.07470703125
0.06445312499999999
0.05383300781249999
0.03405761718749999
0.023071289062499997
0.020507812499999997
0.015930175781249997
0.030029296874999997
0.0439453125
0.0355224609375
0.0201416015625
0.0106201171875
-0.0014648437499999998
-0.00640869140625
-0.01190185546875
-0.03643798828125
-0.05438232421874999
-0.04833984374999999
-0.0384521484375
-0.03515625
-0.03680419921875
-0.029296875
-0.0223388671875
-0.01373291015625
-0.0054931640625
0.0047607421875
0.00567626953125
0.017578125
0.04266357421875
0.0384521484375
0.03936767578125
0.04705810546874999
0.03881835937499999
0.025634765625
0.02288818359375
0.014099121093749998
-0.0029296874999999996
-0.0146484375
-0.0238037109375
-0.03076171875
-0.0450439453125
-0.05657958984374999
-0.0531005859375
-0.035888671875
0.00091552734375
0.06738281249999999
0.1534423828125
0.24682617187499997
0.36529541015625
0.5028076171875
0.6320800781249999
0.76300048828125
0.92926025390625
1.1195068359375002
1.2132568359375
1.2147216796874998
1.0576171875
0.6463623046875
0.1893310546875
-0.14959716796875
-0.315673828125
-0.3629150390625
-0.3577880859375
-0.34716796875
-0.31732177734375
-0.25048828125
-0.18768310546875
-0.15820312499999997
-0.14410400390624997
-0.11700439453124999
-0.08441162109375
-0.0633544921875
-0.06079101562499999
-0.05163574218749999
-0.05566406249999999
-0.05859375
-0.072509765625
-0.08258056640625
-0.08862304687499999
-0.09667968749999999
-0.10107421875
-0.0963134765625
-0.09063720703125
-0.090087890625
-0.09356689453125
-0.0897216796875
-0.08624267578125
-0.094482421875
-0.10327148437499999
-0.1080322265625
-0.10766601562499999
-0.09484863281249999
-0.06573486328125
-0.04962158203125
-0.0545654296875
-0.06445312499999999
-0.07946777343749999
-0.08166503906249999
-0.07910156249999999
-0.08807373046875
-0.0860595703125
-0.06646728515625
-0.03936767578125
-0.0172119140625
-0.0223388671875
-0.0274658203125
-0.02490234375
-0.024353027343749997
-0.0142822265625
-0.00677490234375
0.009887695312499998
0.0216064453125
0.013366699218749998
0.005859374999999999
-0.0034790039062499996
-0.009521484375
-0.020507812499999997
-0.03515625
-0.03936767578125
-0.0362548828125
-0.019775390624999997
0.00054931640625
0.0164794921875
0.0216064453125
0.019592285156249997
0.01300048828125
-0.004028320312499999
-0.01080322265625
-0.025634765625
-0.022155761718749997
-0.018310546875
0.0007324218749999999
0.023986816406249997
0.04248046875
0.05932617187500001
0.0604248046875
0.04412841796875
0.03222656249999999
0.02545166015625
0.024536132812499997
0.028564453125
0.029296875
0.024353027343749997
0.023986816406249997
0.0179443359375
-0.0025634765624999996
-0.019775390624999997
-0.0238037109375
-0.01318359375
0.008422851562499998
0.02490234375
0.00677490234375
-0.0062255859375
0.00457763671875
0.027099609375
0.03369140624999999
0.026916503906249997
0.008056640624999998
0.0012817382812499998
0.00018310546874999997
-0.0047607421875
0.0025634765624999996
0.026916503906249997
0.05126953125
0.07122802734374999
0.08129882812499999
0.07177734375
0.06683349609375
0.05822753906249999
0.06243896484374999
0.07415771484375
0.07891845703125
0.07489013671874999
0.065185546875
0.0531005859375
0.052734375
0.04156494140624999
0.03186035156249999
0.02362060546875
0.0146484375
0.009521484375
0.017028808593749997
0.01666259765625
0.0238037109375
0.03314208984374999
0.028564453125
0.030395507812499997
0.028015136718749997
0.0223388671875
0.019775390624999997
-0.009521484375
-0.0032958984375
0.0289306640625
0.040283203125
0.04138183593749999
0.04541015625
0.04010009765624999
0.01556396484375
0.004028320312499999
-0.0047607421875
-0.01318359375
-0.01300048828125
0.01776123046875
0.0333251953125
0.04248046875
0.0428466796875
0.04541015625
0.04632568359375
0.05694580078124999
0.0567626953125
0.03607177734375
0.013916015624999998
-0.0014648437499999998
-0.00860595703125
0.00732421875
0.006042480468749999
-0.00311279296875
0.01300048828125
0.02362060546875
0.0238037109375
0.03076171875
0.0201416015625
0.005126953124999999
0.009887695312499998
0.0106201171875
0.005859374999999999
0.00457763671875
-0.00732421875
-0.0025634765624999996
-0.0179443359375
-0.03369140624999999
-0.035888671875
-0.01995849609375
-0.015014648437499998
-0.00640869140625
-0.0047607421875
-0.00439453125
0.00054931640625
0.023254394531249997
0.04614257812499999
0.0421142578125
0.0380859375
0.03057861328125
0.03222656249999999
0.030395507812499997
0.023437499999999997
0.02252197265625
0.020690917968749997
0.023986816406249997
0.014099121093749998
0.002197265625
-0.006958007812499999
-0.0062255859375
-0.008056640624999998
-0.01116943359375
-0.0289306640625
-0.0164794921875
-0.017028808593749997
-0.01812744140625
-0.030944824218749993
-0.03021240234375
-0.0113525390625
-0.002197265625
0.0054931640625
0.011535644531249998
0.028015136718749997
0.03936767578125
0.052734375
0.04998779296875
0.03314208984374999
0.018493652343749997
0.0087890625
0.012268066406249998
0.016113281249999997
0.023986816406249997
0.03900146484375
0.06738281249999999
0.10327148437499999
0.13604736328125
0.13751220703124997
0.1259765625
0.104736328125
0.07891845703125
0.0684814453125
0.06317138671875
0.04449462890625
0.020874023437499997
0.0025634765624999996
-0.002197265625
-0.019409179687499997
-0.04449462890625
-0.050537109375
-0.0333251953125
-0.009521484375
-0.006958007812499999
-0.005126953124999999
-0.008422851562499998
-0.0172119140625
-0.012268066406249998
-0.00823974609375
-0.00457763671875
0.00311279296875
0.01300048828125
0.027648925781249997
0.02362060546875
0.0032958984375
0.00054931640625
0.01116943359375
0.011718749999999998
0.01263427734375
0.0172119140625
0.020690917968749997
0.005859374999999999
0.0062255859375
0.0047607421875
0.00274658203125
-0.0029296874999999996
-0.022705078125
-0.04064941406249999
-0.06427001953125
-0.079833984375
-0.08587646484374999
-0.09301757812499999
-0.08624267578125
-0.07269287109374999
-0.01739501953125
0.0703125
0.15966796875
0.2442626953125
0.35797119140625
0.497314453125
0.61798095703125
0.7283935546875
0.8792724609374999
1.06640625
1.1757202148437498
1.1649169921875
0.9982910156249999
0.5934448242187499
0.1358642578125
-0.18237304687499997
-0.33837890625
-0.38378906249999994
-0.3555908203125
-0.31787109374999994
-0.26495361328124994
-0.2186279296875
-0.16955566406249997
-0.144287109375
-0.13916015625
-0.1259765625
-0.11499023437500001
-0.1007080078125
-0.08642578125
-0.0860595703125
-0.08624267578125
-0.09851074218749999
-0.09301757812499999
-0.08642578125
-0.09320068359375
-0.11663818359374999
-0.11315917968749999
-0.098876953125
-0.10455322265624999
-0.12341308593749999
-0.12908935546875
-0.113525390625
-0.09228515624999999
-0.0772705078125
-0.0699462890625
-0.0714111328125
-0.07049560546875
-0.05822753906249999
-0.05932617187500001
-0.08038330078124999
-0.08880615234375
-0.09246826171875
-0.08258056640625
-0.05877685546875
-0.0509033203125
-0.0611572265625
-0.0615234375
-0.05639648437499999
-0.06024169921875
-0.06939697265625
-0.07965087890625
-0.08935546875
-0.08770751953124999
-0.07763671874999999
-0.04888916015624999
-0.03277587890624999
-0.00860595703125
0.023071289062499997
0.016845703124999997
-0.0186767578125
-0.03662109375
-0.05548095703125
-0.05603027343749999
-0.05383300781249999
-0.052734375
-0.05035400390625
-0.05255126953124999
-0.030395507812499997
0.00640869140625
0.02197265625
0.02728271484375
0.02142333984375
-0.0047607421875
-0.03076171875
-0.05767822265625
-0.06079101562499999
-0.05255126953124999
-0.0399169921875
-0.019409179687499997
0.010986328125
0.0274658203125
0.03753662109375
0.04266357421875
0.032958984375
0.0146484375
-0.0087890625
-0.025817871093749997
-0.04541015625
-0.05163574218749999
-0.0325927734375
-0.0113525390625
0.0034790039062499996
0.00933837890625
0.015380859375
0.01629638671875
0.03826904296874999
0.035888671875
0.02105712890625
0.00677490234375
-0.0012817382812499998
-0.015197753906249998
-0.023437499999999997
-0.0201416015625
-0.00274658203125
0.012084960937499998
0.0091552734375
0.007507324218749999
0.016845703124999997
0.016845703124999997
0.0087890625
0.0025634765624999996
0.010253906249999998
0.03753662109375
0.076904296875
0.07397460937499999
0.05126953125
0.023071289062499997
0.0113525390625
0.02197265625
0.0201416015625
0.015930175781249997
0.01812744140625
0.02838134765625
0.0380859375
0.04431152343749999
0.03900146484375
0.03662109375
0.028198242187499997
0.0179443359375
0.012084960937499998
0.012268066406249998
0.005859374999999999
-0.00439453125
-0.018310546875
-0.0289306640625
-0.03021240234375
-0.03076171875
-0.03204345703125
-0.027648925781249997
-0.018493652343749997
-0.012268066406249998
-0.00714111328125
-0.00897216796875
-0.004943847656249999
-0.008422851562499998
-0.02142333984375
-0.02838134765625
-0.020507812499999997
-0.0135498046875
-0.0135498046875
-0.009521484375
-0.01007080078125
-0.017578125
-0.03186035156249999
-0.03973388671874999
-0.04522705078124999
-0.026733398437499997
-0.025634765625
-0.02178955078125
-0.021240234375
-0.024536132812499997
-0.030395507812499997
-0.023071289062499997
-0.02197265625
-0.02471923828125
-0.019409179687499997
-0.0087890625
-0.005126953124999999
-0.012084960937499998
-0.027832031249999997
-0.0648193359375
-0.08734130859374999
-0.09796142578125
-0.1058349609375
-0.1025390625
-0.0838623046875
-0.03955078124999999
-0.006591796875
-0.004028320312499999
-0.011718749999999998
-0.024353027343749997
-0.03662109375
-0.03863525390625
-0.03918457031249999
-0.0450439453125
-0.05072021484375
-0.05804443359375
-0.05126953125
-0.034423828125
-0.03607177734375
-0.0439453125
-0.057861328125
-0.07086181640624999
-0.07635498046875
-0.076904296875
-0.0732421875
-0.06811523437499999
-0.066650390625
-0.057861328125
-0.05438232421874999
-0.0615234375
-0.06719970703125
-0.06298828125
-0.0640869140625
-0.05859375
-0.047607421875
-0.0384521484375
-0.0260009765625
-0.03790283203124999
-0.04449462890625
-0.0355224609375
-0.0311279296875
-0.03167724609375
-0.03350830078124999
-0.03369140624999999
-0.01318359375
0.0007324218749999999
0.00018310546874999997
-0.0020141601562499996
0.005126953124999999
0.012084960937499998
0.016113281249999997
0.0164794921875
0.0238037109375
0.0146484375
-0.00274658203125
-0.021240234375
-0.02838134765625
-0.04541015625
-0.0494384765625
-0.06243896484374999
-0.06884765625
-0.0640869140625
-0.0611572265625
-0.06793212890625
-0.07012939453124999
-0.08020019531249999
-0.08349609374999999
-0.07855224609375
-0.07415771484375
-0.06701660156249999
-0.05804443359375
-0.05749511718750001
-0.04705810546874999
-0.0457763671875
-0.05346679687499999
-0.04998779296875
-0.04870605468749999
-0.04650878906249999
-0.04962158203125
-0.062255859375
-0.07397460937499999
-0.09521484375
-0.0992431640625
-0.09667968749999999
-0.08935546875
-0.05932617187500001
-0.028747558593750003
-0.016113281249999997
-0.01446533203125
-0.0157470703125
-0.02838134765625
-0.05859375
-0.08880615234375
-0.11279296874999999
-0.126708984375
-0.11773681640625
-0.08734130859374999
-0.04046630859374999
0.03643798828125
0.12268066406249999
0.19940185546875
0.28656005859375
0.40447998046875
0.50958251953125
0.6148681640625
0.750732421875
0.9142456054687499
1.03070068359375
1.0404052734375
0.904541015625
0.5222167968750001
0.050537109375
-0.26861572265625
-0.41217041015624994
-0.44073486328124994
-0.39111328124999994
-0.35577392578125
-0.32098388671874994
-0.271728515625
-0.235107421875
-0.21240234375
-0.1878662109375
-0.17431640625
-0.15527343749999997
-0.13110351562499997
-0.12139892578125
-0.12487792968749999
-0.13110351562499997
-0.14630126953125
-0.15948486328124997
-0.16845703125
-0.17523193359375
-0.1812744140625
-0.192626953125
-0.19335937499999997
-0.186767578125
-0.17578125
-0.1600341796875
-0.11810302734375
-0.099609375
-0.104736328125
-0.1314697265625
-0.13476562499999997
-0.12432861328125
-0.11132812499999999
-0.11645507812499999
-0.1314697265625
-0.13659667968749997
-0.1318359375
-0.1204833984375
-0.11370849609374999
-0.122314453125
-0.12487792968749999
-0.12652587890625
-0.12451171875
-0.10931396484375
-0.09741210937499999
-0.10565185546874999
-0.10986328125
-0.09906005859375
-0.08166503906249999
-0.076171875
-0.07012939453124999
-0.07122802734374999
-0.09979248046875
-0.1072998046875
-0.10693359374999999
-0.09814453124999999
-0.099609375
-0.09759521484375
-0.0882568359375
-0.071044921875
-0.0706787109375
-0.07946777343749999
-0.0860595703125
-0.08880615234375
-0.09686279296874999
-0.09741210937499999
-0.0992431640625
-0.098876953125
-0.1036376953125
-0.09722900390625
-0.08056640625
-0.0589599609375
-0.05126953125
-0.05035400390625
-0.0498046875
-0.0435791015625
-0.04907226562499999
-0.04449462890625
-0.04559326171874999
-0.05255126953124999
-0.04650878906249999
-0.03826904296874999
-0.0439453125
-0.0457763671875
-0.05859375
-0.08148193359375
-0.0970458984375
-0.1025390625
-0.09814453124999999
-0.07232666015625
-0.061889648437499986
-0.05603027343749999
-0.05108642578125
-0.04412841796875
-0.03900146484375
-0.03277587890624999
-0.0238037109375
-0.03057861328125
-0.04064941406249999
-0.05712890625
-0.06445312499999999
-0.0772705078125
-0.0897216796875
-0.07910156249999999
-0.06427001953125
-0.04779052734374999
-0.019775390624999997
-0.0010986328125
-0.006591796875
-0.0106201171875
-0.02288818359375
-0.04101562499999999
-0.0498046875
-0.04650878906249999
-0.04669189453125
-0.04870605468749999
-0.052734375
-0.04541015625
-0.03314208984374999
-0.02142333984375
-0.020874023437499997
-0.04138183593749999
-0.03240966796875
-0.026733398437499997
-0.02197265625
-0.010253906249999998
-0.012451171875
-0.03204345703125
-0.05126953125
-0.05767822265625
-0.05511474609374999
-0.0450439453125
-0.04193115234375
-0.044677734375
-0.05987548828124999
-0.06701660156249999
-0.076171875
-0.06372070312499999
-0.05255126953124999
-0.057861328125
-0.06573486328125
-0.07781982421875
-0.1058349609375
-0.11389160156249999
-0.11920166015624999
-0.11993408203125
-0.10766601562499999
-0.085693359375
-0.06683349609375
-0.05163574218749999
-0.04852294921875
-0.0428466796875
-0.029663085937500003
-0.024353027343749997
-0.034423828125
-0.04449462890625
-0.05657958984374999
-0.061889648437499986
-0.062255859375
-0.062255859375
-0.05511474609374999
-0.05548095703125
-0.04522705078124999
-0.03900146484375
-0.03662109375
-0.04705810546874999
-0.0648193359375
-0.07525634765624999
-0.08477783203124999
-0.0882568359375
-0.0860595703125
-0.0882568359375
-0.090087890625
-0.0882568359375
-0.05950927734375
-0.05639648437499999
-0.06243896484374999
-0.04559326171874999
-0.044677734375
-0.05712890625
-0.04833984374999999
-0.03570556640625
-0.035888671875
-0.040283203125
-0.052734375
-0.076904296875
-0.09301757812499999
-0.084228515625
-0.07745361328125
-0.07562255859374999
-0.04888916015624999
-0.037353515625
-0.04541015625
-0.0523681640625
-0.0428466796875
-0.030395507812499997
-0.0172119140625
-0.0128173828125
-0.01666259765625
-0.012451171875
-0.0135498046875
-0.02178955078125
-0.029663085937500003
-0.0421142578125
-0.044677734375
-0.0435791015625
-0.04119873046875
-0.050537109375
-0.04486083984375
-0.02197265625
0.010253906249999998
0.029296875
0.04101562499999999
0.04907226562499999
0.025634765625
-0.002197265625
-0.0223388671875
-0.027832031249999997
-0.0146484375
-0.015930175781249997
-0.028747558593750003
-0.0450439453125
-0.05950927734375
-0.05804443359375
-0.05255126953124999
-0.0604248046875
-0.07049560546875
-0.05639648437499999
-0.05218505859375
-0.05072021484375
-0.04614257812499999
-0.047607421875
-0.06079101562499999
-0.08312988281249999
-0.09741210937499999
-0.11737060546874999
-0.13256835937499997
-0.1336669921875
-0.11682128906250001
-0.0780029296875
-0.04138183593749999
-0.02105712890625
-0.02728271484375
-0.03662109375
-0.0421142578125
-0.04797363281249999
-0.06005859374999999
-0.06573486328125
-0.0615234375
-0.05529785156249999
-0.05291748046875
-0.06719970703125
-0.090087890625
-0.1029052734375
-0.08624267578125
-0.076904296875
-0.06793212890625
-0.03424072265625
0.04907226562499999
0.13201904296875
0.22137451171875
0.34680175781249994
0.48486328125
0.6141357421875
0.7595214843749999
0.9279785156249999
1.1044921875
1.197509765625
1.1649169921875
0.9111328124999999
0.42608642578125
-0.016113281249999997
-0.29736328125
-0.4248046875
-0.45336914062499994
-0.41949462890624994
-0.36053466796875
-0.28674316406249994
-0.2186279296875
-0.15893554687499997
-0.1212158203125
-0.09411621093749999
-0.08642578125
-0.106201171875
-0.1259765625
-0.1387939453125
-0.14978027343749997
-0.147216796875
-0.11590576171875
-0.08880615234375
-0.07946777343749999
-0.0736083984375
-0.07470703125
-0.07379150390624999
-0.07910156249999999
-0.085693359375
-0.09356689453125
-0.100341796875
-0.09686279296874999
-0.09649658203125
-0.099609375
-0.10986328125
-0.11773681640625
-0.10601806640624999
-0.09594726562499999
-0.07818603515625
-0.05291748046875
-0.0347900390625
-0.029663085937500003
-0.04138183593749999
-0.050537109375
-0.05364990234375
-0.05181884765625
-0.04962158203125
-0.06134033203124999
-0.06298828125
-0.06756591796875
-0.07910156249999999
-0.08660888671874999
-0.07159423828125
-0.0626220703125
-0.06463623046875
-0.0589599609375
-0.0498046875
-0.04522705078124999
-0.04431152343749999
-0.04138183593749999
-0.03753662109375
-0.03918457031249999
-0.047607421875
-0.0384521484375
-0.02984619140625
-0.0157470703125
-0.016845703124999997
-0.014831542968750002
-0.01318359375
-0.0146484375
-0.027648925781249997
-0.03863525390625
-0.04174804687499999
-0.0362548828125
-0.024169921874999997
-0.017578125
-0.014099121093749998
-0.00439453125
0.0010986328125
0.004943847656249999
-0.000823974609375
-0.016113281249999997
-0.027832031249999997
-0.03570556640625
-0.04376220703125
-0.04559326171874999
-0.03186035156249999
-0.017578125
-0.006958007812499999
0.00567626953125
0.00531005859375
-0.00274658203125
-0.019592285156249997
-0.02838134765625
-0.03424072265625
-0.04174804687499999
-0.04010009765624999
-0.05346679687499999
-0.06628417968749999
-0.06701660156249999
-0.05950927734375
-0.05511474609374999
-0.05218505859375
-0.0428466796875
-0.031494140625
-0.026733398437499997
-0.030944824218749993
-0.01446533203125
0.002197265625
0.0238037109375
0.023437499999999997
0.00091552734375
-0.01739501953125
-0.026733398437499997
-0.03369140624999999
-0.03387451171875
-0.029663085937500003
-0.0238037109375
-0.009887695312499998
0.008056640624999998
0.015197753906249998
0.02984619140625
0.024169921874999997
0.00036621093749999995
-0.012268066406249998
-0.0252685546875
-0.026916503906249997
-0.03021240234375
-0.032958984375
-0.0311279296875
-0.029113769531249997
-0.044677734375
-0.05419921875
-0.0523681640625
-0.04156494140624999
-0.0263671875
0.010437011718749998
0.016845703124999997
0.0047607421875
-0.00640869140625
-0.02252197265625
-0.0325927734375
-0.03350830078124999
-0.04907226562499999
-0.054931640625
-0.04833984374999999
-0.03698730468749999
-0.03350830078124999
-0.03057861328125
-0.022155761718749997
-0.0076904296875
-0.00439453125
-0.0087890625
-0.01666259765625
-0.0201416015625
-0.018310546875
-0.028747558593750003
-0.03240966796875
-0.02947998046875
-0.04229736328125
-0.04962158203125
-0.05072021484375
-0.03662109375
-0.023254394531249997
-0.012084960937499998
-0.00091552734375
0.011535644531249998
0.010986328125
-0.0034332275390625
-0.012268066406249998
-0.02142333984375
-0.0186767578125
0.0014648437499999998
0.0025634765624999996
-0.0076904296875
-0.010437011718749998
-0.020874023437499997
-0.02545166015625
-0.0362548828125
-0.04064941406249999
-0.0377197265625
-0.020507812499999997
-0.008056640624999998
-0.008422851562499998
-0.01318359375
-0.019409179687499997
-0.01776123046875
-0.02288818359375
-0.03900146484375
-0.04852294921875
-0.03955078124999999
-0.011535644531249998
0.018493652343749997
0.02508544921875
0.020507812499999997
0.014831542968750002
0.010986328125
0.0087890625
0.0012817382812499998
0.0018310546875
0.004028320312499999
0.00732421875
0.015197753906249998
0.02545166015625
0.03387451171875
0.05383300781249999
0.07452392578124999
0.08642578125
0.08367919921875
0.07946777343749999
0.0706787109375
0.05401611328125
0.0325927734375
0.01812744140625
0.008422851562499998
-0.004943847656249999
-0.01318359375
-0.01300048828125
-0.0032958984375
0.007507324218749999
0.005126953124999999
-0.014099121093749998
-0.03350830078124999
-0.04449462890625
-0.03369140624999999
-0.024536132812499997
-0.0223388671875
-0.0087890625
0.00384521484375
0.002197265625
-0.009887695312499998
-0.030029296874999997
-0.03424072265625
-0.029296875
-0.026733398437499997
-0.0238037109375
-0.01904296875
-0.0020141601562499996
0.00531005859375
0.0091552734375
0.006042480468749999
-0.003662109375
-0.012084960937499998
-0.020874023437499997
-0.03167724609375
-0.04815673828125
-0.05383300781249999
-0.052734375
-0.0494384765625
-0.03497314453125
-0.0263671875
-0.01885986328125
-0.025634765625
-0.016113281249999997
0.026916503906249997
0.09136962890625
0.1951904296875
0.32373046874999994
0.47534179687499994
0.6009521484374999
0.7265625
0.88623046875
1.0618286132812502
1.17132568359375
1.1748046875
1.002685546875
0.5597534179687501
0.08610534667968749
-0.23382568359374997
-0.380126953125
-0.40942382812499994
-0.37207031249999994
-0.31384277343749994
-0.25140380859375
-0.19464111328124997
-0.13970947265625
-0.10894775390625
-0.104736328125
-0.11151123046874999
-0.11206054687499999
-0.10949707031249999
-0.0908203125
-0.0721435546875
-0.052734375
-0.04705810546874999
-0.04998779296875
-0.05932617187500001
-0.07196044921874999
-0.09558105468749999
-0.1160888671875
-0.1285400390625
-0.1204833984375
-0.09429931640625
-0.05822753906249999
-0.030395507812499997
-0.014099121093749998
-0.02838134765625
-0.04833984374999999
-0.04797363281249999
-0.04078674316406249
-0.03405761718749999
-0.03369140624999999
-0.0355224609375
-0.0399169921875
-0.03460693359375
-0.0377197265625
-0.03955078124999999
-0.04248046875
-0.05072021484375
-0.04522705078124999
-0.03955078124999999
-0.044677734375
-0.043212890625
-0.0380859375
-0.03515625
-0.03186035156249999
-0.03204345703125
-0.03607177734375
-0.0362548828125
-0.0325927734375
-0.02728271484375
-0.0157470703125
-0.00732421875
-0.010253906249999998
-0.0113525390625
-0.009521484375
-0.009521484375
-0.00640869140625
-0.007507324218749999
-0.00531005859375
0.004211425781249999
0.00439453125
0.00714111328125
0.0009613037109375
-0.004211425781249999
-0.006958007812499999
0.0007324218749999999
0.0088348388671875
0.017578125
0.017028808593749997
0.01190185546875
0.002197265625
-0.00860595703125
-0.01318359375
-0.009887695312499998
-0.0128173828125
0.00164794921875
0.015930175781249997
0.0201416015625
0.0135498046875
0.009704589843749998
0.00311279296875
-0.0032958984375
-0.00640869140625
-0.0010986328125
0.0020141601562499996
0.003662109375
-0.00036621093749999995
-0.00714111328125
-0.010253906249999998
-0.017028808593749997
-0.0260009765625
-0.03186035156249999
-0.03863525390625
-0.0428466796875
-0.034423828125
-0.03460693359375
-0.03900146484375
-0.047149658203125
-0.04907226562499999
-0.04779052734374999
-0.04449462890625
-0.03607177734375
-0.011718749999999998
0.010986328125
0.0274658203125
0.03863525390625
0.03186035156249999
0.0223388671875
0.018493652343749997
0.0201416015625
0.03222656249999999
0.04541015625
0.04870605468749999
0.04486083984375
0.04650878906249999
0.04595947265625
0.03131103515625
0.0106201171875
-0.00732421875
-0.01904296875
-0.024536132812499997
-0.028015136718749997
-0.029663085937500003
-0.03021240234375
-0.0223388671875
-0.012084960937499998
0.00732421875
0.019592285156249997
0.016845703124999997
0.00640869140625
-0.00714111328125
-0.010437011718749998
-0.00787353515625
-0.015014648437499998
-0.0223388671875
-0.0289306640625
-0.023254394531249997
-0.015197753906249998
-0.01812744140625
-0.020690917968749997
-0.018310546875
-0.014099121093749998
-0.0142822265625
-0.0172119140625
-0.0128173828125
-0.01776123046875
-0.0274658203125
-0.03863525390625
-0.04248046875
-0.03515625
-0.03753662109375
-0.0384521484375
-0.03662109375
-0.02947998046875
-0.00897216796875
0.012084960937499998
0.010986328125
0.0087890625
0.005859374999999999
-0.00054931640625
-0.00439453125
-0.0135498046875
-0.0157470703125
-0.017578125
-0.01318359375
-0.01885986328125
-0.0186767578125
-0.0186767578125
-0.016113281249999997
-0.012084960937499998
-0.008056640624999998
-0.005126953124999999
-0.01080322265625
-0.026733398437499997
-0.03533935546875
-0.04119873046875
-0.06005859374999999
-0.06884765625
-0.069580078125
-0.06445312499999999
-0.05932617187500001
-0.04797363281249999
-0.0421142578125
-0.04541015625
-0.04852294921875
-0.05072021484375
-0.04779052734374999
-0.01263427734375
0.00732421875
0.013366699218749998
0.0135498046875
0.0076904296875
0.01812744140625
0.0128173828125
0.015014648437499998
0.012451171875
0.020874023437499997
0.04486083984375
0.0450439453125
0.03918457031249999
0.027832031249999997
0.022155761718749997
0.010253906249999998
0.00457763671875
-0.00457763671875
-0.01812744140625
-0.020507812499999997
-0.024536132812499997
-0.01629638671875
-0.0164794921875
-0.03698730468749999
-0.05566406249999999
-0.072509765625
-0.07928466796875
-0.08020019531249999
-0.07580566406249999
-0.0750732421875
-0.06719970703125
-0.05474853515624999
-0.03057861328125
-0.02728271484375
-0.03643798828125
-0.047607421875
-0.0494384765625
-0.04962158203125
-0.05383300781249999
-0.04833984374999999
-0.03826904296874999
-0.020874023437499997
-0.0223388671875
-0.01666259765625
-0.024169921874999997
-0.03918457031249999
-0.0472412109375
-0.05346679687499999
-0.05694580078124999
-0.05987548828124999
-0.06719970703125
-0.08990478515624999
-0.11920166015624999
-0.1380615234375
-0.14739990234375
-0.13348388671875
-0.12268066406249999
-0.11682128906250001
-0.06317138671875
0.02490234375
0.1292724609375
0.22979736328125
0.34222412109375
0.4595947265625
0.5906982421874999
0.7408447265625
0.9140625
1.046630859375
1.0821533203125
0.9627685546874999
0.5993041992187499
0.11572265625
-0.24536132812499997
-0.42572021484375
-0.47900390624999994
-0.4595947265625
-0.410888671875
-0.34478759765625
-0.27447509765625
-0.20104980468749997
-0.14739990234375
-0.1380615234375
-0.13659667968749997
-0.1446533203125
-0.16442871093749997
-0.18310546875
-0.17779541015625
-0.1702880859375
-0.15911865234374997
-0.15820312499999997
-0.16040039062499997
-0.1519775390625
-0.147216796875
-0.14776611328125
-0.14556884765625
-0.14245605468749997
-0.14538574218749997
-0.14611816406249997
-0.14392089843749997
-0.14556884765625
-0.13916015625
-0.1336669921875
-0.135498046875
-0.14300537109375
-0.15582275390625
-0.15435791015624997
-0.14337158203124997
-0.13092041015625
-0.11920166015624999
-0.1259765625
-0.125244140625
-0.11279296874999999
-0.1190185546875
-0.12030029296874999
-0.10675048828125
-0.09741210937499999
-0.094482421875
-0.10107421875
-0.10638427734374999
-0.08807373046875
-0.087158203125
-0.0908203125
-0.10162353515625
-0.117919921875
-0.1336669921875
-0.1292724609375
-0.11993408203125
-0.11975097656249999
-0.1263427734375
-0.13604736328125
-0.1376953125
-0.12158203124999999
-0.104736328125
-0.09045410156249999
-0.07946777343749999
-0.05914306640624999
-0.03826904296874999
-0.0252685546875
-0.020874023437499997
-0.0238037109375
-0.0238037109375
-0.0260009765625
-0.02471923828125
-0.02545166015625
-0.0238037109375
-0.0142822265625
-0.012268066406249998
-0.011718749999999998
-0.00933837890625
-0.010253906249999998
-0.00897216796875
-0.006958007812499999
-0.008422851562499998
-0.0146484375
-0.013916015624999998
-0.0087890625
-0.012451171875
-0.016113281249999997
-0.01116943359375
-0.009521484375
-0.00457763671875
-0.0029296874999999996
-0.01080322265625
-0.024169921874999997
-0.02490234375
-0.0146484375
-0.015197753906249998
-0.0347900390625
-0.03680419921875
-0.03387451171875
-0.04962158203125
-0.0355224609375
-0.01776123046875
-0.032958984375
-0.0347900390625
-0.0091552734375
-0.0007324218749999999
-0.0062255859375
-0.0076904296875
-0.0007324218749999999
0.00897216796875
0.029113769531249997
0.052734375
0.0692138671875
0.08038330078124999
0.0640869140625
0.014831542968750002
0.0
0.006042480468749999
-0.013916015624999998
-0.00054931640625
-0.0146484375
-0.0146484375
-0.020690917968749997
-0.0007324218749999999
-0.00018310546874999997
-0.0018310546875
-0.011718749999999998
-0.027099609375
-0.020690917968749997
-0.0172119140625
-0.010253906249999998
-0.009887695312499998
-0.01556396484375
-0.031494140625
-0.03662109375
-0.027832031249999997
-0.03881835937499999
-0.04797363281249999
-0.02984619140625
-0.035888671875
-0.02490234375
-0.026916503906249997
-0.0076904296875
0.0032958984375
0.01318359375
0.006591796875
-0.00457763671875
-0.009521484375
-0.0135498046875
-0.010253906249999998
-0.011718749999999998
-0.024536132812499997
-0.03680419921875
-0.026733398437499997
-0.01556396484375
-0.012084960937499998
-0.0034790039062499996
-0.003662109375
0.011535644531249998
0.0146484375
0.00714111328125
-0.00238037109375
0.00164794921875
-0.0032958984375
-0.00311279296875
-0.0018310546875
-0.00311279296875
-0.0062255859375
-0.0091552734375
-0.01776123046875
-0.01629638671875
-0.0135498046875
-0.01776123046875
-0.004211425781249999
-0.011718749999999998
-0.0172119140625
-0.0179443359375
-0.0197296142578125
-0.01885986328125
-0.0164794921875
-0.02105712890625
-0.01116943359375
0.0018310546875
0.00531005859375
0.0032958984375
0.00018310546874999997
-0.00531005859375
-0.0128173828125
-0.0142822265625
-0.0142822265625
-0.008422851562499998
-0.00567626953125
-0.0047607421875
-0.010437011718749998
-0.012084960937499998
-0.01116943359375
-0.01263427734375
-0.021240234375
-0.026733398437499997
-0.015380859375
-0.010986328125
-0.0020141601562499996
0.012084960937499998
0.032958984375
0.0384521484375
0.0450439453125
0.06811523437499999
0.07232666015625
0.08551025390625
0.0838623046875
0.0743408203125
0.05401611328125
0.04742431640624999
0.03717041015625
0.028747558593750003
0.02105712890625
0.0113525390625
0.01116943359375
0.0146484375
0.0113525390625
0.004028320312499999
-0.0113525390625
-0.01904296875
-0.02838134765625
-0.03131103515625
-0.034423828125
-0.02728271484375
-0.024169921874999997
-0.01812744140625
-0.02655029296875
-0.0186767578125
-0.020874023437499997
-0.0274658203125
-0.0311279296875
-0.03753662109375
-0.03900146484375
-0.0347900390625
-0.016113281249999997
-0.003662109375
-0.00787353515625
-0.028564453125
-0.0289306640625
-0.037353515625
-0.03076171875
-0.0238037109375
-0.02142333984375
-0.014831542968750002
-0.01263427734375
-0.0157470703125
-0.02288818359375
-0.0333251953125
-0.04870605468749999
-0.05639648437499999
-0.05291748046875
-0.04852294921875
-0.04687499999999999
-0.02252197265625
0.06134033203124999
0.15820312499999997
0.26605224609375
0.38909912109375
0.5093994140625
0.6183471679687499
0.76007080078125
0.93768310546875
1.09808349609375
1.17279052734375
1.124267578125
0.8842163085937499
0.43212890625
0.0047607421875
-0.25689697265625
-0.37097167968749994
-0.372802734375
-0.34552001953125
-0.29589843749999994
-0.2442626953125
-0.20104980468749997
-0.169921875
-0.1494140625
-0.1409912109375
-0.1358642578125
-0.1259765625
-0.12066650390624999
-0.12579345703125
-0.1259765625
-0.11480712890625
-0.12194824218749999
-0.1329345703125
-0.13677978515625
-0.13751220703124997
-0.12286376953125
-0.1058349609375
-0.11151123046874999
-0.10107421875
-0.10821533203125
-0.11645507812499999
-0.13458251953125
-0.138427734375
-0.11480712890625
-0.10382080078124999
-0.09136962890625
-0.0889892578125
-0.08441162109375
-0.08056640625
-0.09667968749999999
-0.10510253906249999
-0.10546875
-0.12011718749999999
-0.1116943359375
-0.10986328125
-0.1160888671875
-0.11627197265625
-0.10784912109375
-0.11059570312499999
-0.10693359374999999
-0.10327148437499999
-0.1007080078125
-0.0823974609375
-0.0849609375
-0.08349609374999999
-0.07910156249999999
-0.0721435546875
-0.0732421875
-0.07470703125
-0.07470703125
-0.0677490234375
-0.05566406249999999
-0.0457763671875
-0.0384521484375
-0.03369140624999999
-0.019409179687499997
-0.024169921874999997
-0.04541015625
-0.05072021484375
-0.0615234375
-0.065185546875
-0.069580078125
-0.0736083984375
-0.05987548828124999
-0.05584716796875
-0.06097412109374999
-0.05603027343749999
-0.032958984375
-0.01556396484375
-0.01007080078125
-0.011718749999999998
-0.01318359375
-0.02142333984375
-0.026916503906249997
-0.015197753906249998
-0.029663085937500003
-0.05181884765625
-0.040283203125
-0.03515625
-0.04064941406249999
-0.04833984374999999
-0.03643798828125
-0.03680419921875
-0.04541015625
-0.031494140625
-0.04193115234375
-0.04907226562499999
-0.04815673828125
-0.0362548828125
-0.0274658203125
-0.01995849609375
-0.01556396484375
-0.012084960937499998
-0.010253906249999998
-0.007507324218749999
0.005126953124999999
0.01318359375
0.00933837890625
-0.019409179687499997
-0.02178955078125
-0.013916015624999998
-0.012451171875
-0.010986328125
-0.0054931640625
0.0007324218749999999
0.009887695312499998
0.019592285156249997
0.0201416015625
0.0157470703125
0.015380859375
0.025634765625
0.019409179687499997
0.011535644531249998
0.008422851562499998
0.00714111328125
0.0047607421875
-0.0012817382812499998
-0.00457763671875
-0.00933837890625
-0.01446533203125
-0.009887695312499998
-0.010437011718749998
-0.0076904296875
-0.006042480468749999
-0.005859374999999999
-0.012084960937499998
-0.010253906249999998
-0.01300048828125
-0.012268066406249998
-0.0113525390625
-0.0135498046875
-0.009521484375
-0.0054931640625
-0.005126953124999999
-0.004028320312499999
-0.006958007812499999
-0.00531005859375
-0.00311279296875
-0.0034790039062499996
0.0010986328125
0.011718749999999998
0.0164794921875
0.01739501953125
0.0135498046875
0.012084960937499998
0.007736206054687498
0.012268066406249998
0.00274658203125
0.004943847656249999
0.002197265625
-0.00640869140625
-0.01629638671875
-0.026916503906249997
-0.02471923828125
-0.017578125
-0.00897216796875
-0.0047607421875
-0.0032958984375
0.0014648437499999998
-0.004943847656249999
-0.008422851562499998
-0.008422851562499998
-0.015197753906249998
-0.012451171875
-0.012268066406249998
-0.00677490234375
0.00036621093749999995
0.006958007812499999
0.0146484375
0.0223388671875
0.0260009765625
0.0142822265625
0.00384521484375
-0.002197265625
0.00439453125
-0.0010986328125
-0.0020141601562499996
-0.012084960937499998
-0.012451171875
-0.00439453125
0.00091552734375
0.00439453125
0.00787353515625
0.015380859375
0.01904296875
0.028198242187499997
0.03350830078124999
0.01922607421875
0.0135498046875
0.015014648437499998
0.00714111328125
0.003662109375
0.008056640624999998
0.01373291015625
0.01007080078125
0.00860595703125
0.010253906249999998
0.01885986328125
0.0201416015625
0.02142333984375
0.03314208984374999
0.0380859375
0.03424072265625
0.04779052734374999
0.04614257812499999
0.05419921875
0.06884765625
0.08111572265625
0.091552734375
0.09906005859375
0.1025390625
0.09301757812499999
0.07489013671874999
0.05035400390625
0.023254394531249997
0.008056640624999998
0.006042480468749999
0.0047607421875
-0.0012817382812499998
-0.00384521484375
-0.00933837890625
-0.00823974609375
-0.018310546875
-0.010437011718749998
-0.0062255859375
-0.0018310546875
0.00677490234375
0.00567626953125
-0.0091552734375
-0.01904296875
-0.020324707031249997
-0.028564453125
-0.020507812499999997
-0.02490234375
-0.01190185546875
0.0
-0.0014648437499999998
0.0
0.01080322265625
0.013916015624999998
0.01263427734375
0.01318359375
0.01739501953125
0.017578125
0.0157470703125
0.006958007812499999
-0.0135498046875
-0.028198242187499997
-0.04248046875
-0.05529785156249999
-0.05932617187500001
-0.05035400390625
-0.04962158203125
-0.03222656249999999
0.00933837890625
0.06390380859375
0.14392089843749997
0.23931884765624997
0.35375976562499994
0.48870849609375
0.614501953125
0.732421875
0.8858642578125
1.06805419921875
1.1843261718749998
1.1905517578125
1.0528564453125
0.69140625
0.242431640625
-0.09759521484375
-0.292877197265625
-0.36199951171874994
-0.32922363281249994
-0.279052734375
-0.2318115234375
-0.1878662109375
-0.1409912109375
-0.11462402343749999
-0.10345458984375
-0.10510253906249999
-0.09796142578125
-0.09777832031249999
-0.09045410156249999
-0.08880615234375
-0.091552734375
-0.0970458984375
-0.09228515624999999
-0.09667968749999999
-0.09613037109375
-0.090087890625
-0.07525634765624999
-0.071044921875
-0.0787353515625
-0.090087890625
-0.07653808593749999
-0.07086181640624999
-0.0732421875
-0.0721435546875
-0.07122802734374999
-0.07196044921874999
-0.0684814453125
-0.066650390625
-0.0732421875
-0.07232666015625
-0.075439453125
-0.07452392578124999
-0.0677490234375
-0.05108642578125
-0.04907226562499999
-0.0355224609375
-0.04595947265625
-0.0523681640625
-0.03918457031249999
-0.04833984374999999
-0.04431152343749999
-0.03918457031249999
-0.03021240234375
-0.02838134765625
-0.029113769531249997
-0.03131103515625
-0.03131103515625
-0.04248046875
-0.03936767578125
-0.03222656249999999
-0.03240966796875
-0.03369140624999999
-0.0384521484375
-0.0289306640625
-0.01629638671875
-0.009887695312499998
-0.00531005859375
-0.0076904296875
-0.004028320312499999
-0.005126953124999999
-0.004211425781249999
-0.00457763671875
-0.00457763671875
-0.010253906249999998
-0.004028320312499999
0.00640869140625
0.0010986328125
0.017578125
0.005859374999999999
-0.005859374999999999
-0.0029296874999999996
-0.0012817382812499998
-0.004211425781249999
0.0
0.00054931640625
0.0007324218749999999
0.0032958984375
0.004028320312499999
0.012084960937499998
0.015197753906249998
0.017578125
0.022705078125
0.027648925781249997
0.030029296874999997
0.03881835937499999
0.03497314453125
0.01922607421875
0.01629638671875
-0.0032958984375
-0.004028320312499999
-0.0054931640625
0.0010986328125
-0.00238037109375
-0.00384521484375
0.00238037109375
0.0091552734375
0.015930175781249997
0.018493652343749997
0.023437499999999997
0.0216064453125
0.02728271484375
0.03021240234375
0.03753662109375
0.04870605468749999
0.05566406249999999
0.06756591796875
0.0838623046875
0.0750732421875
0.06683349609375
0.054931640625
0.04083251953124999
0.031494140625
0.03497314453125
0.03900146484375
0.04266357421875
0.04248046875
0.037353515625
0.027099609375
0.019775390624999997
0.01007080078125
0.015930175781249997
0.01080322265625
0.01190185546875
0.0128173828125
0.0179443359375
0.0179443359375
0.02197265625
0.02142333984375
0.0186767578125
0.019775390624999997
0.0172119140625
0.01190185546875
0.009704589843749998
0.015380859375
0.01904296875
0.0260009765625
0.02471923828125
0.024353027343749997
0.0157470703125
0.00860595703125
0.009521484375
0.016113281249999997
0.020507812499999997
0.023986816406249997
0.02545166015625
0.01904296875
0.025634765625
0.0201416015625
0.01190185546875
0.01300048828125
0.01812744140625
0.017578125
0.014831542968750002
0.01080322265625
0.009704589843749998
0.004028320312499999
0.0054931640625
0.00531005859375
0.00054931640625
0.004943847656249999
0.00457763671875
0.003662109375
0.00311279296875
0.00054931640625
-0.0007324218749999999
0.003662109375
0.0025634765624999996
0.0087890625
0.0128173828125
0.01666259765625
0.0142822265625
0.0142822265625
0.0091552734375
0.005126953124999999
0.01300048828125
0.01373291015625
0.011718749999999998
0.017028808593749997
0.02252197265625
0.02490234375
0.031494140625
0.0252685546875
0.010253906249999998
0.0
-0.005859374999999999
-0.009521484375
-0.008056640624999998
-0.005859374999999999
-0.00164794921875
-0.0010986328125
0.00439453125
0.01776123046875
0.02508544921875
0.0216064453125
0.02142333984375
0.0201416015625
0.02105712890625
0.017578125
0.009521484375
0.007507324218749999
0.014099121093749998
0.0179443359375
0.022155761718749997
0.0274658203125
0.03900146484375
0.052734375
0.06079101562499999
0.0633544921875
0.06005859374999999
0.05529785156249999
0.0567626953125
0.076171875
0.08862304687499999
0.09063720703125
0.0823974609375
0.07305908203124999
0.06628417968749999
0.0589599609375
0.05511474609374999
0.05529785156249999
0.0439453125
0.04156494140624999
0.03460693359375
0.023071289062499997
0.01007080078125
0.008422851562499998
0.004028320312499999
0.0020141601562499996
0.00164794921875
0.002197265625
0.00714111328125
0.005859374999999999
-0.0021514892578125
-0.005126953124999999
-0.00164794921875
-0.00164794921875
-0.006591796875
-0.006958007812499999
-0.00439453125
-0.0012817382812499998
0.00439453125
0.008056640624999998
0.0091552734375
0.00640869140625
0.00531005859375
0.006591796875
-0.0019683837890625
-0.00897216796875
-0.00860595703125
-0.009521484375
-0.009521484375
-0.0054931640625
-0.014099121093749998
-0.017578125
-0.03204345703125
-0.03698730468749999
-0.030395507812499997
-0.020324707031249997
-0.0020141601562499996
0.04010009765624999
0.11315917968749999
0.19738769531249997
0.28527832031249994
0.40869140625
0.54052734375
0.66375732421875
0.80126953125
0.9721069335937501
1.11932373046875
1.1685791015624998
1.0843505859375
0.7891845703125
0.33251953124999994
-0.047607421875
-0.2772216796875
-0.377197265625
-0.37243652343749994
-0.32885742187499994
-0.28619384765625
-0.22943115234374997
-0.17175292968749997
-0.13604736328125
-0.1263427734375
-0.12487792968749999
-0.11627197265625
-0.11206054687499999
-0.11260986328125
-0.1142578125
-0.1083984375
-0.10766601562499999
-0.11151123046874999
-0.11334228515624999
-0.12268066406249999
-0.1190185546875
-0.100341796875
-0.08862304687499999
-0.09320068359375
-0.09539794921875
-0.0963134765625
-0.1029052734375
-0.1021728515625
-0.09777832031249999
-0.0963134765625
-0.09246826171875
-0.09393310546875
-0.08880615234375
-0.0853271484375
-0.07818603515625
-0.06884765625
-0.0615234375
-0.06005859374999999
-0.06079101562499999
-0.06390380859375
-0.06701660156249999
-0.062255859375
-0.0604248046875
-0.06591796875
-0.06903076171875
-0.0703125
-0.07049560546875
-0.0736083984375
-0.06536865234375
-0.0626220703125
-0.066650390625
-0.0732421875
-0.06610107421875
-0.06243896484374999
-0.054931640625
-0.04888916015624999
-0.05291748046875
-0.054931640625
-0.05859375
-0.05749511718750001
-0.04907226562499999
-0.0523681640625
-0.05657958984374999
-0.05548095703125
-0.054931640625
-0.05255126953124999
-0.04779052734374999
-0.03698730468749999
-0.02655029296875
-0.0186767578125
-0.023437499999999997
-0.02508544921875
-0.0238037109375
-0.023986816406249997
-0.03021240234375
-0.02142333984375
-0.020874023437499997
-0.01904296875
-0.01904296875
-0.02471923828125
-0.028015136718749997
-0.0333251953125
-0.031494140625
-0.030944824218749993
-0.032958984375
-0.03222656249999999
-0.032958984375
-0.03405761718749999
-0.0333251953125
-0.03570556640625
-0.0380859375
-0.0362548828125
-0.028564453125
-0.0223388671875
-0.022705078125
-0.023986816406249997
-0.0377197265625
-0.04119873046875
-0.04248046875
-0.037353515625
-0.0355224609375
-0.0263671875
-0.020507812499999997
-0.02618408203125
-0.013916015624999998
-0.0054931640625
-0.00567626953125
-0.005859374999999999
-0.00732421875
-0.0087890625
-0.011718749999999998
-0.009887695312499998
-0.0062255859375
-0.004211425781249999
-0.00091552734375
0.0010986328125
-0.00311279296875
-0.012451171875
-0.012268066406249998
-0.011718749999999998
-0.01373291015625
-0.020874023437499997
-0.03369140624999999
-0.04119873046875
-0.03643798828125
-0.03131103515625
-0.03076171875
-0.034423828125
-0.04138183593749999
-0.03076171875
-0.0223388671875
-0.030029296874999997
-0.03717041015625
-0.0380859375
-0.0435791015625
-0.04522705078124999
-0.0501708984375
-0.04833984374999999
-0.04687499999999999
-0.05401611328125
-0.05035400390625
-0.05419921875
-0.05419921875
-0.05126953125
-0.05126953125
-0.052734375
-0.04779052734374999
-0.04815673828125
-0.05328369140625
-0.061889648437499986
-0.0640869140625
-0.06701660156249999
-0.06445312499999999
-0.05859375
-0.0567626953125
-0.0604248046875
-0.05749511718750001
-0.05474853515624999
-0.05603027343749999
-0.0615234375
-0.05841064453125001
-0.05859375
-0.05859375
-0.06097412109374999
-0.06500244140625
-0.06591796875
-0.071044921875
-0.07946777343749999
-0.08184814453125
-0.076904296875
-0.06207275390625001
-0.05181884765625
-0.0472412109375
-0.04888916015624999
-0.057861328125
-0.0648193359375
-0.07342529296875
-0.08203124999999999
-0.08111572265625
-0.07379150390624999
-0.0677490234375
-0.06134033203124999
-0.0640869140625
-0.06573486328125
-0.0640869140625
-0.07818603515625
-0.08642578125
-0.08587646484374999
-0.09045410156249999
-0.09100341796874999
-0.08038330078124999
-0.0736083984375
-0.0640869140625
-0.05731201171874999
-0.0531005859375
-0.057861328125
-0.06390380859375
-0.07452392578124999
-0.0706787109375
-0.05712890625
-0.04705810546874999
-0.0457763671875
-0.04248046875
-0.04779052734374999
-0.0567626953125
-0.0677490234375
-0.0703125
-0.06811523437499999
-0.07177734375
-0.06701660156249999
-0.06097412109374999
-0.04907226562499999
-0.03570556640625
-0.023437499999999997
-0.0164794921875
-0.009521484375
0.0020141601562499996
0.01922607421875
0.03222656249999999
0.019775390624999997
0.008422851562499998
0.00164794921875
-0.008422851562499998
-0.01739501953125
-0.031494140625
-0.0384521484375
-0.0384521484375
-0.03186035156249999
-0.029663085937500003
-0.04138183593749999
-0.05566406249999999
-0.07177734375
-0.08056640625
-0.0908203125
-0.08880615234375
-0.08807373046875
-0.08551025390625
-0.0867919921875
-0.0889892578125
-0.0838623046875
-0.08074951171875
-0.07818603515625
-0.07086181640624999
-0.069580078125
-0.06646728515625
-0.0706787109375
-0.07305908203124999
-0.06628417968749999
-0.050537109375
-0.04266357421875
-0.04486083984375
-0.044677734375
-0.0494384765625
-0.04431152343749999
-0.03662109375
-0.026733398437499997
-0.020874023437499997
-0.03222656249999999
-0.0377197265625
-0.04833984374999999
-0.079833984375
-0.1083984375
-0.11059570312499999
-0.0992431640625
-0.07232666015625
-0.013916015624999998
0.07470703125
0.1728515625
0.27923583984375
0.41070556640625
0.5473022460937499
0.6767578125
0.837158203125
1.0259399414062498
1.1876220703125
1.2238769531249998
1.06494140625
0.66943359375
0.16955566406249997
-0.2080078125
-0.39935302734374994
-0.46948242187499994
-0.47016906738281244
-0.44183349609375
-0.36950683593749994
-0.29809570312499994
-0.24206542968749994
-0.198486328125
-0.1739501953125
-0.15948486328124997
-0.14080810546875
-0.125244140625
-0.1171875
-0.11315917968749999
-0.09393310546875
-0.1200714111328125
-0.14501953125
-0.173583984375
-0.15435791015624997
-0.1593017578125
-0.13348388671875
-0.11059570312499999
-0.09851074218749999
-0.10015869140625
-0.1029052734375
-0.10162353515625
-0.1072998046875
-0.10418701171874999
-0.11828613281249999
-0.13641357421875
-0.12451171875
-0.10162353515625
-0.11315917968749999
-0.117919921875
-0.1212158203125
-0.09722900390625
-0.07562255859374999
-0.08587646484374999
-0.084228515625
-0.08935546875
-0.07708740234375
-0.06719970703125
-0.06555175781249999
-0.03515625
-0.017028808593749997
0.0054931640625
-0.02508544921875
-0.03167724609375
-0.03698730468749999
-0.017578125
-0.0377197265625
-0.03570556640625
-0.01300048828125
-0.0238037109375
-0.03881835937499999
-0.03955078124999999
-0.029296875
-0.01885986328125
-0.016845703124999997
-0.0399169921875
-0.02178955078125
0.012268066406249998
0.03900146484375
0.030029296874999997
0.031494140625
0.018493652343749997
0.0201416015625
0.018493652343749997
0.008056640624999998
-0.007507324218749999
0.00054931640625
0.0164794921875
0.03222656249999999
0.0252685546875
0.02508544921875
0.04852294921875
0.03570556640625
0.03369140624999999
0.029113769531249997
0.04229736328125
0.05364990234375
0.0736083984375
0.087890625
0.08038330078124999
0.08111572265625
0.07928466796875
0.07708740234375
0.0633544921875
0.052734375
0.029296875
0.02728271484375
0.03863525390625
0.040283203125
0.03515625
0.05822753906249999
0.03753662109375
-0.005859374999999999
0.0034790039062499996
0.0274658203125
0.06298828125
0.08294677734375
0.06390380859375
0.05145263671875
0.065185546875
0.08056640625
0.1025390625
0.09796142578125
0.09759521484375
0.100341796875
0.10308837890624999
0.10308837890624999
0.1190185546875
0.1278076171875
0.13165283203125
0.1351318359375
0.13128662109375
0.13165283203125
0.11206054687499999
0.09594726562499999
0.1065673828125
0.09356689453125
0.087158203125
0.0772705078125
0.0838623046875
0.076171875
0.0703125
0.08129882812499999
0.08862304687499999
0.09667968749999999
0.10125732421874999
0.09979248046875
0.1014404296875
0.0908203125
0.08129882812499999
0.07379150390624999
0.06372070312499999
0.04870605468749999
0.047607421875
0.04632568359375
0.04229736328125
0.03405761718749999
0.04156494140624999
0.05035400390625
0.062255859375
0.08441162109375
0.09118652343749999
0.09777832031249999
0.08276367187499999
0.0626220703125
0.06079101562499999
0.0615234375
0.0677490234375
0.075439453125
0.0772705078125
0.07910156249999999
0.084228515625
0.07818603515625
0.0772705078125
0.07525634765624999
0.0706787109375
0.066650390625
0.0626220703125
0.0589599609375
0.07049560546875
0.085693359375
0.09320068359375
0.094482421875
0.08148193359375
0.07598876953125
0.076904296875
0.07012939453124999
0.05694580078124999
0.04815673828125
0.043212890625
0.034423828125
0.01629638671875
0.00640869140625
0.0135498046875
0.016845703124999997
0.012084960937499998
0.018310546875
0.011718749999999998
0.005126953124999999
0.004211425781249999
0.022705078125
0.040283203125
0.0439453125
0.03973388671874999
0.03662109375
0.03222656249999999
0.03021240234375
0.01629638671875
0.01190185546875
0.014099121093749998
0.00036621093749999995
-0.00311279296875
-0.00457763671875
0.012451171875
0.03405761718749999
0.03643798828125
0.03460693359375
0.02947998046875
0.04614257812499999
0.07122802734374999
0.07397460937499999
0.07580566406249999
0.0787353515625
0.07836914062499999
0.07635498046875
0.08404541015624999
0.08843994140624999
0.08441162109375
0.0633544921875
0.03680419921875
0.00531005859375
-0.016113281249999997
-0.0377197265625
-0.03204345703125
-0.0238037109375
-0.02471923828125
-0.019592285156249997
-0.012084960937499998
-0.017578125
-0.017578125
-0.017578125
-0.011718749999999998
-0.006042480468749999
-0.0014648437499999998
-0.0010986328125
0.00897216796875
0.0047607421875
-0.00823974609375
-0.01080322265625
-0.00787353515625
0.00091552734375
-0.00091552734375
-0.0014648437499999998
-0.016113281249999997
-0.020324707031249997
0.00457763671875
0.0106201171875
0.012084960937499998
0.01116943359375
0.0018310546875
0.025634765625
0.03424072265625
0.0142822265625
-0.01556396484375
-0.054931640625
-0.1014404296875
-0.11389160156249999
-0.100341796875
-0.06390380859375
0.02142333984375
0.1256103515625
0.22631835937499997
0.372802734375
0.5028076171875
0.6240234375
0.7481689453125
0.90618896484375
1.083251953125
1.1460571289062498
1.10394287109375
0.8631591796875
0.4185791015625
0.010253906249999998
-0.2490234375
-0.3614501953125
-0.39111328124999994
-0.32977294921875
-0.26110839843750006
-0.2288818359375
-0.1541748046875
-0.12158203124999999
-0.1036376953125
-0.1014404296875
-0.10821533203125
-0.08642578125
-0.05364990234375
-0.05859375
-0.05529785156249999
-0.05364990234375
-0.07232666015625
-0.1043701171875
-0.0999755859375
-0.09613037109375
-0.10198974609374999
-0.0963134765625
-0.0919189453125
-0.0963134765625
-0.09118652343749999
-0.06939697265625
-0.05804443359375
-0.07049560546875
-0.0714111328125
-0.0728759765625
-0.08129882812499999
-0.08148193359375
-0.07470703125
-0.08093261718749999
-0.0677490234375
-0.0596923828125
-0.04541015625
-0.03515625
-0.0428466796875
-0.04614257812499999
-0.050537109375
-0.04559326171874999
-0.03863525390625
-0.03405761718749999
-0.04907226562499999
-0.04431152343749999
-0.0146484375
0.0201416015625
0.013916015624999998
-0.0216064453125
-0.04833984374999999
-0.05749511718750001
-0.05548095703125
-0.052001953125
-0.03680419921875
-0.0113525390625
-0.01300048828125
-0.00567626953125
-0.00457763671875
0.0014648437499999998
0.0146484375
0.02197265625
0.02838134765625
0.0010986328125
0.00274658203125
0.0142822265625
0.023437499999999997
0.0260009765625
0.0362548828125
0.04632568359375
0.0325927734375
0.01373291015625
-0.0032958984375
-0.006591796875
-0.012084960937499998
-0.0087890625
-0.00457763671875
-0.00439453125
-0.0029296874999999996
-0.0020141601562499996
0.011718749999999998
0.0201416015625
0.0355224609375
0.0113525390625
-0.015014648437499998
-0.015014648437499998
-0.02288818359375
-0.00311279296875
0.01300048828125
0.009887695312499998
0.0091552734375
0.015380859375
0.02728271484375
0.03533935546875
0.03021240234375
0.005859374999999999
-0.00897216796875
-0.0142822265625
-0.0087890625
0.0216064453125
0.024169921874999997
0.029113769531249997
0.01629638671875
0.0216064453125
0.019592285156249997
0.0146484375
0.023071289062499997
0.02947998046875
0.01556396484375
0.007507324218749999
0.0146484375
0.0311279296875
0.0347900390625
0.03131103515625
0.0260009765625
0.03918457031249999
0.013916015624999998
0.012084960937499998
0.023437499999999997
0.030029296874999997
0.022155761718749997
0.013916015624999998
-0.0012817382812499998
-0.00457763671875
-0.01300048828125
-0.01373291015625
-0.006591796875
-0.00732421875
0.02142333984375
0.04119873046875
0.04138183593749999
0.04522705078124999
0.029663085937500003
0.00439453125
-0.005859374999999999
-0.008056640624999998
-0.00823974609375
-0.025634765625
-0.032958984375
-0.016845703124999997
-0.007507324218749999
-0.010253906249999998
-0.010253906249999998
-0.02142333984375
-0.03131103515625
-0.02142333984375
-0.0091552734375
-0.008422851562499998
-0.008422851562499998
0.004943847656249999
0.0054931640625
-0.00018310546874999997
0.002197265625
0.015380859375
0.02197265625
0.01904296875
0.0164794921875
-0.0014648437499999998
-0.011718749999999998
-0.009521484375
0.01373291015625
0.016113281249999997
-0.0128173828125
-0.0201416015625
-0.0172119140625
-0.011535644531249998
-0.024353027343749997
-0.023071289062499997
-0.023986816406249997
-0.0289306640625
-0.0428466796875
-0.03698730468749999
0.00439453125
0.02984619140625
0.0260009765625
0.010253906249999998
-0.010253906249999998
-0.02142333984375
-0.010253906249999998
-0.0087890625
-0.0216064453125
-0.030944824218749993
-0.02197265625
-0.00640869140625
0.0128173828125
0.0252685546875
0.019409179687499997
-0.00860595703125
-0.0054931640625
-0.0172119140625
-0.02618408203125
-0.01373291015625
0.0007324218749999999
-0.008422851562499998
-0.0142822265625
-0.016113281249999997
-0.00732421875
0.00054931640625
0.006042480468749999
0.009704589843749998
0.015197753906249998
0.040283203125
0.05841064453125001
0.07708740234375
0.06738281249999999
0.0728759765625
0.07177734375
0.05749511718750001
0.05694580078124999
0.04083251953124999
0.02362060546875
0.0142822265625
0.00311279296875
0.0025634765624999996
0.00018310546874999997
-0.0106201171875
-0.02197265625
-0.02490234375
-0.026916503906249997
-0.016113281249999997
-0.0146484375
-0.01776123046875
-0.024536132812499997
-0.029296875
-0.035888671875
-0.0428466796875
-0.04193115234375
-0.0421142578125
-0.03918457031249999
-0.03405761718749999
-0.0252685546875
-0.017578125
-0.018310546875
-0.010253906249999998
-0.0201416015625
-0.03387451171875
-0.0380859375
-0.02178955078125
-0.009704589843749998
-0.0019683837890625
0.00036621093749999995
0.005859374999999999
-0.004943847656249999
-0.04101562499999999
-0.07122802734374999
-0.087890625
-0.09777832031249999
-0.104736328125
-0.0933837890625
-0.07653808593749999
-0.03662109375
0.04376220703125
0.1329345703125
0.22430419921875
0.340576171875
0.4716796875
0.59014892578125
0.7305908203125
0.9221191406249999
1.105224609375
1.1788330078124998
1.1293945312499998
0.9131469726562499
0.472412109375
0.05383300781249999
-0.234375
-0.380126953125
-0.40301513671875
-0.37207031249999994
-0.3299560546875
-0.27392578125
-0.19830322265624997
-0.16204833984375
-0.14245605468749997
-0.1343994140625
-0.12030029296874999
-0.13330078125
-0.13256835937499997
-0.135498046875
-0.14794921874999997
-0.150146484375
-0.146484375
-0.15838623046875
-0.1651611328125
-0.14245605468749997
-0.11956787109375
-0.11132812499999999
-0.1080322265625
-0.1314697265625
-0.1314697265625
-0.1259765625
-0.135498046875
-0.1318359375
-0.1387939453125
-0.139892578125
-0.1329345703125
-0.12377929687499997
-0.11407470703125
-0.11022949218749999
-0.09741210937499999
-0.08441162109375
-0.084228515625
-0.09906005859375
-0.10345458984375
-0.08880615234375
-0.07232666015625
-0.07635498046875
-0.07598876953125
-0.09045410156249999
-0.0933837890625
-0.08642578125
-0.07653808593749999
-0.07470703125
-0.07635498046875
-0.08839416503906249
-0.09832763671875
-0.09411621093749999
-0.07855224609375
-0.0596923828125
-0.06738281249999999
-0.0677490234375
-0.0787353515625
-0.0706787109375
-0.06445312499999999
-0.054931640625
-0.03643798828125
-0.004943847656249999
-0.013366699218749998
-0.0223388671875
-0.05035400390625
-0.06866455078125
-0.07928466796875
-0.076171875
-0.0787353515625
-0.0728759765625
-0.06317138671875
-0.0421142578125
-0.012268066406249998
-0.01318359375
-0.01190185546875
-0.0029296874999999996
-0.00860595703125
-0.00164794921875
0.004028320312499999
0.020507812499999997
0.01812744140625
0.008422851562499998
-0.010986328125
-0.0428466796875
-0.04522705078124999
-0.04888916015624999
-0.04797363281249999
-0.027832031249999997
-0.02197265625
-0.022155761718749997
-0.0172119140625
-0.015197753906249998
-0.0164794921875
-0.018310546875
-0.0223388671875
-0.0260009765625
-0.03186035156249999
-0.0333251953125
-0.03515625
-0.028747558593750003
-0.019775390624999997
-0.01318359375
-0.003662109375
-0.0010986328125
0.008056640624999998
0.01446533203125
0.013366699218749998
0.022155761718749997
0.030944824218749993
0.027832031249999997
0.021240234375
0.01904296875
0.012268066406249998
0.0216064453125
0.03222656249999999
0.03222656249999999
0.018493652343749997
0.00640869140625
0.0062255859375
0.0012817382812499998
0.00054931640625
-0.0034790039062499996
-0.00018310546874999997
-0.00311279296875
-0.006042480468749999
-0.00640869140625
-0.0091552734375
0.00238037109375
0.013916015624999998
-0.00311279296875
-0.005859374999999999
-0.01263427734375
-0.020507812499999997
-0.02197265625
-0.0252685546875
-0.022705078125
-0.014602661132812502
-0.0201416015625
-0.020690917968749997
-0.023071289062499997
-0.0260009765625
-0.03222656249999999
-0.03204345703125
-0.030944824218749993
-0.019775390624999997
-0.023437499999999997
-0.02105712890625
-0.013916015624999998
-0.01080322265625
-0.009887695312499998
-0.0106201171875
-0.010253906249999998
-0.0087890625
-0.006042480468749999
0.0032958984375
0.008422851562499998
0.00054931640625
0.00091552734375
-0.00311279296875
-0.02105712890625
-0.011718749999999998
-0.00311279296875
-0.01263427734375
-0.017578125
-0.0146484375
-0.021240234375
-0.03076171875
-0.03424072265625
-0.03515625
-0.031494140625
-0.02471923828125
-0.019775390624999997
-0.02105712890625
-0.004211425781249999
0.00238037109375
0.004943847656249999
-0.016845703124999997
-0.020874023437499997
-0.013916015624999998
-0.015014648437499998
0.009521484375
0.015014648437499998
0.009887695312499998
0.01007080078125
0.004028320312499999
-0.011535644531249998
-0.02197265625
-0.0146484375
-0.015014648437499998
-0.01190185546875
-0.006042480468749999
-0.0029296874999999996
0.0047607421875
0.015930175781249997
0.019775390624999997
0.024536132812499997
0.03021240234375
0.04174804687499999
0.05529785156249999
0.06829833984374999
0.06555175781249999
0.05639648437499999
0.05035400390625
0.04431152343749999
0.03167724609375
0.025817871093749997
0.0186767578125
0.015380859375
0.010986328125
0.0087890625
0.004028320312499999
0.0029296874999999996
-0.0007324218749999999
-0.01080322265625
-0.01318359375
-0.010437011718749998
-0.01080322265625
-0.0087890625
-0.016113281249999997
-0.009704589843749998
-0.00732421875
-0.005859374999999999
-0.0010986328125
