-0.12268066406249999
-0.12286376953125
-0.11883544921874999
-0.1160888671875
-0.11682128906250001
-0.11572265625
-0.11645507812499999
-0.113525390625
-0.11187744140625
-0.1142578125
-0.1116943359375
-0.10675048828125
-0.10400390625
-0.10327148437499999
-0.10162353515625
-0.0992431640625
-0.09576416015625
-0.09100341796874999
-0.091552734375
-0.08770751953124999
-0.08203124999999999
-0.08020019531249999
-0.07635498046875
-0.07177734375
-0.0703125
-0.07196044921874999
-0.07196044921874999
-0.07159423828125
-0.06738281249999999
-0.06628417968749999
-0.0611572265625
-0.05877685546875
-0.0545654296875
-0.05383300781249999
-0.05419921875
-0.05163574218749999
-0.052734375
-0.04797363281249999
-0.04614257812499999
-0.0439453125
-0.03790283203124999
-0.0355224609375
-0.03314208984374999
-0.03076171875
-0.025817871093749997
-0.01904296875
-0.017028808593749997
-0.01318359375
-0.008056640624999998
-0.0034790039062499996
-0.00036621093749999995
0.0018310546875
0.0018310546875
0.008422851562499998
0.015197753906249998
0.017028808593749997
0.0186767578125
0.022155761718749997
0.023437499999999997
0.024353027343749997
0.027099609375
0.02984619140625
0.03405761718749999
0.03698730468749999
0.04248046875
0.04248046875
0.04998779296875
0.05694580078124999
0.05822753906249999
0.05987548828124999
0.065185546875
0.069580078125
0.07781982421875
0.08276367187499999
0.0849609375
0.09667968749999999
0.10198974609374999
0.10601806640624999
0.10821533203125
0.10876464843749999
0.11059570312499999
0.1171875
0.12268066406249999
0.12213134765625
0.12341308593749999
0.12744140624999997
0.12835693359374997
0.13092041015625
0.1343994140625
0.13659667968749997
0.1395263671875
0.13970947265625
0.14190673828125
0.148681640625
0.14758300781249997
0.1483154296875
0.154541015625
0.156005859375
0.16717529296875
0.16699218749999997
0.1578369140625
0.1435546875
0.13568115234375
0.125244140625
0.1109619140625
0.09283447265625
0.0732421875
0.0596923828125
0.0439453125
0.028747558593750003
0.013366699218749998
0.0012817382812499998
-0.01373291015625
-0.0274658203125
-0.04541015625
-0.05731201171874999
-0.06793212890625
-0.07781982421875
-0.08862304687499999
-0.10235595703124999
-0.10894775390625
-0.11334228515624999
-0.11956787109375
-0.12268066406249999
-0.1322021484375
-0.140625
-0.1409912109375
-0.14007568359375
-0.14611816406249997
-0.150146484375
-0.16076660156249997
-0.15802001953124997
-0.15362548828125
-0.15728759765625
-0.15362548828125
-0.15142822265625
-0.15875244140625
-0.1571044921875
-0.1494140625
-0.13623046874999997
-0.13110351562499997
-0.1300048828125
-0.13092041015625
-0.13092041015625
-0.129638671875
-0.1256103515625
-0.1278076171875
-0.1273956298828125
-0.12414550781250001
-0.12341308593749999
-0.11920166015624999
-0.11407470703125
-0.11553955078124999
-0.11315917968749999
-0.11407470703125
-0.104736328125
-0.09777832031249999
-0.09484863281249999
-0.09558105468749999
-0.09796142578125
-0.08917236328124999
-0.0908203125
-0.08880615234375
-0.085693359375
-0.08770751953124999
-0.08880615234375
-0.08367919921875
-0.07928466796875
-0.07946777343749999
-0.07910156249999999
-0.07763671874999999
-0.07342529296875
-0.07305908203124999
-0.07855224609375
-0.08093261718749999
-0.07745361328125
-0.076171875
-0.0706787109375
-0.06445312499999999
-0.061889648437499986
-0.05731201171874999
-0.05328369140625
-0.05291748046875
-0.05841064453125001
-0.061889648437499986
-0.05529785156249999
-0.0494384765625
-0.04431152343749999
-0.04779052734374999
-0.052001953125
-0.052001953125
-0.057861328125
-0.05657958984374999
-0.0545654296875
-0.0509033203125
-0.0509033203125
-0.05163574218749999
-0.05346679687499999
-0.05126953125
-0.05291748046875
-0.05566406249999999
-0.05548095703125
-0.0531005859375
-0.0450439453125
-0.04412841796875
-0.04833984374999999
-0.05291748046875
-0.05145263671875
-0.0531005859375
-0.050537109375
-0.05181884765625
-0.04266357421875
-0.0380859375
-0.03881835937499999
-0.040283203125
-0.0399169921875
-0.0428466796875
-0.040283203125
-0.04376220703125
-0.04302978515625
-0.04010009765624999
-0.03533935546875
-0.0384521484375
-0.03918457031249999
-0.0362548828125
-0.03222656249999999
-0.0311279296875
-0.02655029296875
-0.025634765625
-0.02471923828125
-0.028015136718749997
-0.027099609375
-0.0260009765625
-0.031494140625
-0.03424072265625
-0.03222656249999999
-0.0347900390625
-0.02984619140625
-0.02362060546875
-0.0238037109375
-0.0238037109375
-0.0216064453125
-0.0201416015625
-0.023071289062499997
-0.01776123046875
-0.0201416015625
-0.016845703124999997
-0.0201416015625
-0.020874023437499997
-0.0186767578125
-0.0142822265625
-0.009887695312499998
-0.0113525390625
-0.0106201171875
-0.01080322265625
-0.004943847656249999
-0.0025634765624999996
0.0047607421875
0.00714111328125
0.00860595703125
0.01318359375
0.0091552734375
0.006042480468749999
0.00860595703125
0.00457763671875
0.0034790039062499996
0.0076904296875
0.00640869140625
0.0054931640625
0.005859374999999999
0.0014648437499999998
-0.0007324218749999999
0.00018310546874999997
0.0010986328125
0.002197265625
0.00439453125
0.005126953124999999
-0.00054931640625
0.008422851562499998
0.01776123046875
0.02178955078125
0.02508544921875
0.018493652343749997
0.015014648437499998
0.01318359375
0.01373291015625
0.012451171875
0.0128173828125
0.01629638671875
0.015014648437499998
0.017578125
0.02490234375
0.0260009765625
0.02655029296875
0.016845703124999997
0.013916015624999998
0.00860595703125
0.0106201171875
0.014831542968750002
0.010253906249999998
0.005859374999999999
0.01190185546875
0.015930175781249997
0.01739501953125
0.015014648437499998
0.0106201171875
0.0047607421875
0.010986328125
0.01116943359375
0.00860595703125
0.010253906249999998
0.0034790039062499996
0.0010986328125
0.003662109375
0.005859374999999999
0.00439453125
0.003662109375
-0.0025634765624999996
-0.005859374999999999
-0.008056640624999998
-0.00860595703125
-0.0113525390625
-0.010253906249999998
-0.006683349609374999
0.00311279296875
0.012084960937499998
0.021240234375
0.035888671875
0.04779052734374999
0.05511474609374999
0.06573486328125
0.0703125
0.06976318359375
0.06738281249999999
0.06207275390625001
0.0604248046875
0.06097412109374999
0.06628417968749999
0.06555175781249999
0.05731201171874999
0.04614257812499999
0.04486083984375
0.04101562499999999
0.03515625
0.026733398437499997
0.01922607421875
0.010986328125
0.0047607421875
0.00457763671875
0.002197265625
0.00054931640625
0.0029296874999999996
0.0007324218749999999
0.00238037109375
0.0032958984375
-0.0012817382812499998
-0.0020141601562499996
-0.0029296874999999996
0.0
-0.00311279296875
-0.009704589843749998
-0.0087890625
-0.01190185546875
-0.009887695312499998
-0.01116943359375
-0.0087890625
-0.00439453125
-0.008056640624999998
-0.0087890625
-0.009887695312499998
-0.010253906249999998
-0.0034790039062499996
-0.0014648437499999998
-0.005126953124999999
-0.0054931640625
-0.004028320312499999
-0.0076904296875
-0.0054931640625
-0.00531005859375
-0.003662109375
-0.0014648437499999998
-0.0014648437499999998
0.0025634765624999996
0.0128173828125
0.023437499999999997
0.023071289062499997
0.021240234375
0.01776123046875
0.01190185546875
0.0087890625
-0.0020141601562499996
-0.020507812499999997
-0.05163574218749999
-0.07745361328125
-0.08020019531249999
-0.05712890625
-0.0076904296875
0.0439453125
0.11645507812499999
0.26165771484375
0.45245361328124994
0.685546875
0.89501953125
1.10174560546875
1.2978515625
1.4146728515625
1.4403076171875
1.439208984375
1.4326171874999998
1.4208984375
1.297119140625
0.76904296875
0.156005859375
-0.34387207031249994
-0.5767822265625
-0.61138916015625
-0.5386962890625
-0.43542480468749994
-0.34552001953125
-0.27062988281249994
-0.20819091796875
-0.1534423828125
-0.12432861328125
-0.1116943359375
-0.10235595703124999
-0.0992431640625
-0.10748291015625
-0.11553955078124999
-0.1190185546875
-0.1171875
-0.113525390625
-0.11480712890625
-0.11682128906250001
-0.11773681640625
-0.11663818359374999
-0.10876464843749999
-0.1014404296875
-0.09814453124999999
-0.0999755859375
-0.09722900390625
-0.0935211181640625
-0.08953857421874999
-0.08514404296875
-0.0838623046875
-0.08020019531249999
-0.08056640625
-0.08111572265625
-0.07745361328125
-0.07525634765624999
-0.071044921875
-0.06829833984374999
-0.0703125
-0.0699462890625
-0.06866455078125
-0.06683349609375
-0.06207275390625001
-0.05712890625
-0.054931640625
-0.04742431640624999
-0.04614257812499999
-0.04595947265625
-0.0435791015625
-0.04229736328125
-0.04101562499999999
-0.04064941406249999
-0.04119873046875
-0.04174804687499999
-0.03790283203124999
-0.034423828125
-0.03533935546875
-0.028015136718749997
-0.02288818359375
-0.020324707031249997
-0.01904296875
-0.01556396484375
-0.0146484375
-0.014831542968750002
-0.01318359375
-0.010253906249999998
-0.006591796875
-0.0054931640625
-0.008056640624999998
-0.00860595703125
-0.005859374999999999
0.0020141601562499996
0.005859374999999999
0.00567626953125
0.006591796875
0.007507324218749999
0.009887695312499998
0.0135498046875
0.017028808593749997
0.022155761718749997
0.03021240234375
0.0311279296875
0.0325927734375
0.0325927734375
0.03167724609375
0.03662109375
0.04522705078124999
0.04815673828125
0.05126953125
0.05694580078124999
0.057861328125
0.05603027343749999
0.062255859375
0.06536865234375
0.07049560546875
0.0732421875
0.07946777343749999
0.08514404296875
0.08642578125
0.0889892578125
0.091552734375
0.09667968749999999
0.10052490234374999
0.101806640625
0.09942626953124999
0.09942626953124999
0.1007080078125
0.10345458984375
0.104736328125
0.1065673828125
0.10601806640624999
0.10638427734374999
0.1029052734375
0.09796142578125
0.09594726562499999
0.09539794921875
0.09466552734375
0.08935546875
0.0823974609375
0.07397460937499999
0.066650390625
0.05712890625
0.04174804687499999
0.027832031249999997
0.015014648437499998
0.003662109375
-0.01263427734375
-0.029113769531249997
-0.04486083984375
-0.0567626953125
-0.06243896484374999
-0.07470703125
-0.09228515624999999
-0.10711669921875
-0.11846923828124999
-0.12835693359374997
-0.13604736328125
-0.14483642578125
-0.1519775390625
-0.15911865234374997
-0.16204833984375
-0.16328430175781247
-0.16625976562499997
-0.1658935546875
-0.16809082031249997
-0.167724609375
-0.16845703125
-0.17266845703124997
-0.169921875
-0.16607666015625
-0.1651611328125
-0.16754150390625
-0.16845703125
-0.16644287109375
-0.16625976562499997
-0.1651611328125
-0.16406249999999997
-0.1651611328125
-0.15985107421875
-0.15765380859374997
-0.15380859375
-0.15087890625
-0.15124511718749997
-0.1519775390625
-0.15509033203125
-0.154541015625
-0.15124511718749997
-0.148681640625
-0.14611816406249997
-0.142822265625
-0.1376953125
-0.13018798828124997
-0.12652587890625
-0.1278076171875
-0.12744140624999997
-0.12213134765625
-0.1171875
-0.11315917968749999
-0.10711669921875
-0.10510253906249999
-0.10693359374999999
-0.11389160156249999
-0.11865234375000001
-0.11700439453124999
-0.11462402343749999
-0.1171875
-0.11462402343749999
-0.1072998046875
-0.09851074218749999
-0.09301757812499999
-0.091552734375
-0.0897216796875
-0.09118652343749999
-0.09374999999999999
-0.09484863281249999
-0.09210205078125
-0.0919189453125
-0.09301757812499999
-0.08734130859374999
-0.08367919921875
-0.087158203125
-0.08935546875
-0.0849609375
-0.08166503906249999
-0.08331298828125
-0.0889892578125
-0.08514404296875
-0.076171875
-0.07525634765624999
-0.08020019531249999
-0.07910156249999999
-0.07965087890625
-0.08038330078124999
-0.07763671874999999
-0.0714111328125
-0.06445312499999999
-0.0611572265625
-0.05529785156249999
-0.05438232421874999
-0.0567626953125
-0.0611572265625
-0.06500244140625
-0.065185546875
-0.06353759765625
-0.06243896484374999
-0.0615234375
-0.0633087158203125
-0.06372070312499999
-0.0604248046875
-0.05346679687499999
-0.05072021484375
-0.054931640625
-0.052001953125
-0.050537109375
-0.05163574218749999
-0.05383300781249999
-0.05548095703125
-0.05383300781249999
-0.04687499999999999
-0.0421142578125
-0.04248046875
-0.03900146484375
-0.0347900390625
-0.0377197265625
-0.04193115234375
-0.0435791015625
-0.03698730468749999
-0.03131103515625
-0.028198242187499997
-0.03350830078124999
-0.0384521484375
-0.03973388671874999
-0.03918457031249999
-0.037353515625
-0.03881835937499999
-0.03826904296874999
-0.03369140624999999
-0.03240966796875
-0.03131103515625
-0.0325927734375
-0.03698730468749999
-0.030944824218749993
-0.0274658203125
-0.0274658203125
-0.030944824218749993
-0.03131103515625
-0.03277587890624999
-0.02838134765625
-0.028015136718749997
-0.03076171875
-0.030029296874999997
-0.027099609375
-0.02471923828125
-0.020324707031249997
-0.020507812499999997
-0.01904296875
-0.018310546875
-0.016113281249999997
-0.01904296875
-0.017578125
-0.01556396484375
-0.012084960937499998
-0.0113525390625
-0.012084960937499998
-0.0113525390625
-0.0034790039062499996
0.00036621093749999995
0.004943847656249999
0.0014648437499999998
-0.00311279296875
-0.00054931640625
0.00640869140625
0.00567626953125
0.0047607421875
0.00531005859375
0.004211425781249999
0.002197265625
0.0012817382812499998
-0.006591796875
-0.0113525390625
-0.006042480468749999
0.0018310546875
0.002197265625
0.0007324218749999999
0.00036621093749999995
0.005859374999999999
0.00311279296875
0.0018310546875
0.004211425781249999
-0.0020141601562499996
0.0010986328125
0.01318359375
0.01904296875
0.01885986328125
0.012268066406249998
0.009887695312499998
0.016113281249999997
0.014831542968750002
0.0186767578125
0.01300048828125
0.00714111328125
0.00439453125
0.014831542968750002
0.021240234375
0.015380859375
0.010986328125
0.0135498046875
0.015197753906249998
0.01666259765625
0.013916015624999998
0.008422851562499998
0.0087890625
0.00897216796875
0.0034790039062499996
0.004028320312499999
0.00897216796875
0.012451171875
0.013366699218749998
0.0164794921875
0.015380859375
0.009887695312499998
0.003662109375
-0.00164794921875
-0.0007324218749999999
0.004028320312499999
0.014099121093749998
0.015930175781249997
0.017578125
0.025634765625
0.03753662109375
0.0472412109375
0.05603027343749999
0.05987548828124999
0.05859375
0.05603027343749999
0.05767822265625
0.06390380859375
0.07177734375
0.0750732421875
0.07635498046875
0.0721435546875
0.06390380859375
0.05712890625
0.0498046875
0.04431152343749999
0.04833984374999999
0.05035400390625
0.03698730468749999
0.0179443359375
0.008422851562499998
0.00714111328125
0.006591796875
0.0062255859375
0.005126953124999999
0.005859374999999999
0.00714111328125
0.01007080078125
0.011535644531249998
0.0172119140625
0.01904296875
0.01904296875
0.025634765625
0.025634765625
0.02728271484375
0.0216064453125
0.019775390624999997
0.01904296875
0.020690917968749997
0.0186767578125
0.023071289062499997
0.026916503906249997
0.02197265625
0.009887695312499998
0.0106201171875
0.019409179687499997
0.02288818359375
0.019775390624999997
0.018493652343749997
0.017028808593749997
0.01446533203125
0.018310546875
0.02178955078125
0.01885986328125
0.016845703124999997
0.02142333984375
0.03222656249999999
0.0380859375
0.03057861328125
0.0201416015625
0.0186767578125
0.02362060546875
0.02618408203125
0.0186767578125
0.0062255859375
-0.00787353515625
-0.0325927734375
-0.06738281249999999
-0.08642578125
-0.06811523437499999
-0.025634765625
0.02490234375
0.08587646484374999
0.1761474609375
0.33306884765625
0.54840087890625
0.7939453125
1.0094604492187498
1.2202148437499998
1.393798828125
1.4512939453125
1.4600830078124998
1.4542236328124998
1.445068359375
1.43408203125
0.9276123046874999
0.30706787109375
-0.26641845703125
-0.6005859375
-0.6927795410156249
-0.6593627929687499
-0.5704650878906249
-0.46746826171875
-0.37646484374999994
-0.30102539062499994
-0.23309326171874997
-0.17541503906249997
-0.14630126953125
-0.1376953125
-0.128173828125
-0.11865234375000001
-0.12139892578125
-0.1259765625
-0.12579345703125
-0.12194824218749999
-0.11956787109375
-0.11645507812499999
-0.1142578125
-0.11206054687499999
-0.11041259765625
-0.11370849609374999
-0.11645507812499999
-0.11279296874999999
-0.10601806640624999
-0.098876953125
-0.09832763671875
-0.09814453124999999
-0.09521484375
-0.0860595703125
-0.08093261718749999
-0.0823974609375
-0.0772705078125
-0.0721435546875
-0.0728759765625
-0.071044921875
-0.06719970703125
-0.06298828125
-0.061889648437499986
-0.05731201171874999
-0.05163574218749999
-0.05346679687499999
-0.0494384765625
-0.03955078124999999
-0.03240966796875
-0.03186035156249999
-0.04193115234375
-0.04119873046875
-0.03497314453125
-0.02728271484375
-0.026916503906249997
-0.02197265625
-0.02490234375
-0.027648925781249997
-0.0274658203125
-0.02142333984375
-0.01318359375
-0.011535644531249998
-0.00714111328125
-0.004211425781249999
0.0010986328125
0.0062255859375
0.011718749999999998
0.013366699218749998
0.015197753906249998
0.02105712890625
0.019409179687499997
0.019592285156249997
0.03240966796875
0.04156494140624999
0.05072021484375
0.0589599609375
0.052734375
0.0498046875
0.0498046875
0.052001953125
0.05749511718750001
0.06555175781249999
0.07397460937499999
0.0728759765625
0.0706787109375
0.07708740234375
0.0845947265625
0.09118652343749999
0.08477783203124999
0.08770751953124999
0.10455322265624999
0.12414550781250001
0.13659667968749997
0.13824462890625
0.14154052734374997
0.14666748046874997
0.14904785156249997
0.150146484375
0.15032958984374997
0.15399169921874997
0.15820312499999997
0.16461181640624997
0.172119140625
0.18182373046874997
0.18804931640625
0.18768310546875
0.18695068359374997
0.18896484375
0.19555664062499997
0.19976806640624997
0.20343017578124997
0.20910644531249997
0.20745849609374997
0.205810546875
0.21038818359374997
0.20928955078125
0.20416259765625
0.19885253906249997
0.192626953125
0.18731689453124997
0.17907714843749997
0.167724609375
0.15380859375
0.126708984375
0.1072998046875
0.0897216796875
0.07910156249999999
0.06591796875
0.0498046875
0.03717041015625
0.023437499999999997
0.0025634765624999996
-0.019409179687499997
-0.04083251953124999
-0.05841064453125001
-0.06939697265625
-0.0787353515625
-0.09374999999999999
-0.10748291015625
-0.11993408203125
-0.11297607421875
-0.10766601562499999
-0.11151123046874999
-0.11627197265625
-0.123046875
-0.13018798828124997
-0.1373291015625
-0.142822265625
-0.15362548828125
-0.15325927734375
-0.150146484375
-0.14813232421875
-0.14538574218749997
-0.1387939453125
-0.14154052734374997
-0.1483154296875
-0.14758300781249997
-0.14996337890625
-0.15234375
-0.15069580078125
-0.14447021484375
-0.14611816406249997
-0.1468505859375
-0.142822265625
-0.136962890625
-0.13238525390625
-0.13256835937499997
-0.1322021484375
-0.129638671875
-0.1270751953125
-0.13092041015625
-0.12744140624999997
-0.11975097656249999
-0.11517333984374999
-0.11370849609374999
-0.10986328125
-0.11041259765625
-0.11132812499999999
-0.109130859375
-0.1036376953125
-0.0992431640625
-0.09741210937499999
-0.09521484375
-0.09741210937499999
-0.09374999999999999
-0.09356689453125
-0.0933837890625
-0.09429931640625
-0.09228515624999999
-0.09210205078125
-0.0908203125
-0.08880615234375
-0.0849609375
-0.08221435546874999
-0.07635498046875
-0.07470703125
-0.0736083984375
-0.0728759765625
-0.07305908203124999
-0.07379150390624999
-0.069580078125
-0.07159423828125
-0.0732421875
-0.07489013671874999
-0.07562255859374999
-0.07763671874999999
-0.07305908203124999
-0.06463623046875
-0.05291748046875
-0.05126953125
-0.0523681640625
-0.05145263671875
-0.04998779296875
-0.054931640625
-0.06005859374999999
-0.06097412109374999
-0.0626220703125
-0.0611572265625
-0.05749511718750001
-0.05291748046875
-0.052001953125
-0.04797363281249999
-0.044677734375
-0.04541015625
-0.04888916015624999
-0.044677734375
-0.040283203125
-0.03900146484375
-0.04138183593749999
-0.04907226562499999
-0.05529785156249999
-0.052001953125
-0.04431152343749999
-0.04064941406249999
-0.0347900390625
-0.030395507812499997
-0.031494140625
-0.032958984375
-0.03643798828125
-0.04431152343749999
-0.04888916015624999
-0.047607421875
-0.04650878906249999
-0.04559326171874999
-0.03881835937499999
-0.03826904296874999
-0.03680419921875
-0.03424072265625
-0.03424072265625
-0.034423828125
-0.0330963134765625
-0.03314208984374999
-0.03405761718749999
-0.030395507812499997
-0.029296875
-0.03222656249999999
-0.03076171875
-0.030395507812499997
-0.03515625
-0.034423828125
-0.0311279296875
-0.02984619140625
-0.027099609375
-0.028015136718749997
-0.029663085937500003
-0.030029296874999997
-0.029113769531249997
-0.025634765625
-0.02178955078125
-0.020690917968749997
-0.020507812499999997
-0.020874023437499997
-0.023254394531249997
-0.02362060546875
-0.019409179687499997
-0.01812744140625
-0.020507812499999997
-0.02490234375
-0.0252685546875
-0.024169921874999997
-0.022155761718749997
-0.01995849609375
-0.021240234375
-0.019592285156249997
-0.01739501953125
-0.020324707031249997
-0.020507812499999997
-0.018493652343749997
-0.0146484375
-0.01263427734375
-0.01300048828125
-0.013366699218749998
-0.0135498046875
-0.01446533203125
-0.018310546875
-0.019592285156249997
-0.01666259765625
-0.011535644531249998
-0.006591796875
-0.00823974609375
-0.012268066406249998
-0.017578125
-0.017028808593749997
-0.014099121093749998
-0.01373291015625
-0.01446533203125
-0.01666259765625
-0.01995849609375
-0.022155761718749997
-0.02197265625
-0.020874023437499997
-0.0186767578125
-0.023071289062499997
-0.0260009765625
-0.024169921874999997
-0.0164794921875
-0.0113525390625
-0.013366699218749998
-0.016845703124999997
-0.015014648437499998
-0.006042480468749999
0.0029296874999999996
0.0146484375
0.02984619140625
0.040283203125
0.04559326171874999
0.04339599609375
0.04742431640624999
0.0498046875
0.0516815185546875
0.052734375
0.05163574218749999
0.05035400390625
0.04650878906249999
0.0421142578125
0.04064941406249999
0.0377197265625
0.03204345703125
0.02655029296875
0.01885986328125
0.01080322265625
0.0007324218749999999
-0.00567626953125
-0.00677490234375
-0.00787353515625
-0.009521484375
-0.0087890625
-0.006958007812499999
-0.00640869140625
-0.0019683837890625
0.0029296874999999996
-0.0014648437499999998
0.00091552734375
0.004211425781249999
0.008056640624999998
0.00640869140625
0.0032958984375
0.0014648437499999998
0.0014648437499999998
0.00018310546874999997
-0.00164794921875
0.00091552734375
0.0
-0.00238037109375
-0.00091552734375
-0.00054931640625
0.00036621093749999995
0.0025634765624999996
0.0018310546875
-0.002197265625
-0.003662109375
-0.0025634765624999996
0.00036621093749999995
0.00311279296875
0.0054931640625
0.00531005859375
0.005126953124999999
0.005859374999999999
0.00567626953125
0.00531005859375
0.00531005859375
0.005859374999999999
0.00677490234375
0.00787353515625
0.010253906249999998
0.0062255859375
-0.0076904296875
-0.02197265625
-0.05145263671875
-0.08587646484374999
-0.09759521484375
-0.079833984375
-0.040374755859375
0.01080322265625
0.07745361328125
0.19885253906249997
0.381591796875
0.6146850585937499
0.837158203125
1.0469970703124998
1.247314453125
1.402587890625
1.446533203125
1.450927734375
1.4443359374999998
1.4344482421875
1.3106689453124998
0.76080322265625
0.1256103515625
-0.3984375
-0.6512603759765625
-0.697265625
-0.6390380859375
-0.52825927734375
-0.42077636718749994
-0.33526611328124994
-0.2647705078125
-0.19775390625
-0.1534423828125
-0.13623046874999997
-0.12286376953125
-0.11242675781249999
-0.10876464843749999
-0.11077880859375
-0.11334228515624999
-0.11499023437500001
-0.11773681640625
-0.1171875
-0.12268066406249999
-0.11993408203125
-0.1212158203125
-0.12030029296874999
-0.11865234375000001
-0.1153564453125
-0.11041259765625
-0.1058349609375
-0.10107421875
-0.09356689453125
-0.09246826171875
-0.09136962890625
-0.09045410156249999
-0.08642578125
-0.08441162109375
-0.08166503906249999
-0.07562255859374999
-0.0699462890625
-0.0692138671875
-0.06701660156249999
-0.065185546875
-0.0596923828125
-0.05603027343749999
-0.0567626953125
-0.05218505859375
-0.0501708984375
-0.04870605468749999
-0.04559326171874999
-0.04595947265625
-0.04412841796875
-0.03662109375
-0.03424072265625
-0.028564453125
-0.028015136718749997
-0.028015136718749997
-0.02197265625
-0.016113281249999997
-0.01318359375
-0.011535644531249998
-0.01080322265625
-0.00933837890625
-0.005859374999999999
-0.0025634765624999996
-0.00091552734375
0.0029296874999999996
0.009704589843749998
0.017028808593749997
0.023437499999999997
0.026733398437499997
0.03240966796875
0.03680419921875
0.03753662109375
0.037353515625
0.0377197265625
0.04083251953124999
0.04650878906249999
0.047607421875
0.04907226562499999
0.05383300781249999
0.06298828125
0.0677490234375
0.0728759765625
0.08148193359375
0.08367919921875
0.0933837890625
0.101806640625
0.1021728515625
0.10601806640624999
0.10693359374999999
0.106201171875
0.10784912109375
0.10693359374999999
0.10638427734374999
0.1109619140625
0.11407470703125
0.12176513671875
0.1259765625
0.128173828125
0.12890624999999997
0.13348388671875
0.1387939453125
0.1431884765625
0.14501953125
0.14538574218749997
0.14245605468749997
0.14666748046874997
0.15380859375
0.16131591796875
0.16094970703125
0.15673828124999997
0.15472412109375
0.15289306640625
0.15673828124999997
0.154541015625
0.1541748046875
0.15673828124999997
0.15802001953124997
0.15673828124999997
0.1494140625
0.1435546875
0.1292724609375
0.11315917968749999
0.09521484375
0.07379150390624999
0.05364990234375
0.03607177734375
0.01776123046875
0.0047607421875
-0.0091552734375
-0.020507812499999997
-0.03662109375
-0.05163574218749999
-0.06610107421875
-0.079833984375
-0.0897216796875
-0.09741210937499999
-0.10784912109375
-0.1175537109375
-0.12652587890625
-0.13037109375
-0.13677978515625
-0.144287109375
-0.1431884765625
-0.14190673828125
-0.13623046874999997
-0.1322021484375
-0.1380615234375
-0.14172363281249997
-0.14483642578125
-0.14666748046874997
-0.14886474609374997
-0.14538574218749997
-0.14501953125
-0.145751953125
-0.14190673828125
-0.141357421875
-0.13623046874999997
-0.13385009765624997
-0.12982177734375
-0.12908935546875
-0.12414550781250001
-0.12249755859374999
-0.1212158203125
-0.117919921875
-0.11663818359374999
-0.11260986328125
-0.109130859375
-0.1036376953125
-0.09851074218749999
-0.09484863281249999
-0.09796142578125
-0.1007080078125
-0.09649658203125
-0.09594726562499999
-0.09173583984375
-0.08660888671874999
-0.08697509765625
-0.085693359375
-0.08148193359375
-0.07580566406249999
-0.06884765625
-0.06701660156249999
-0.06811523437499999
-0.0699462890625
-0.0633544921875
-0.05914306640624999
-0.0589599609375
-0.05712890625
-0.0545654296875
-0.05438232421874999
-0.050537109375
-0.04486083984375
-0.04229736328125
-0.03936767578125
-0.03460693359375
-0.03369140624999999
-0.0274658203125
-0.02288818359375
-0.0201416015625
-0.01556396484375
-0.01318359375
-0.013916015624999998
-0.012084960937499998
-0.006958007812499999
-0.00457763671875
-0.004211425781249999
-0.0032958984375
-0.00164794921875
-0.0020141601562499996
-0.00164794921875
0.0007324218749999999
-0.00054931640625
-0.004943847656249999
-0.006958007812499999
-0.00457763671875
-0.004943847656249999
-0.0014648437499999998
0.0020141601562499996
0.006591796875
0.006591796875
0.012084960937499998
0.01263427734375
0.008056640624999998
0.008056640624999998
0.0113525390625
0.0135498046875
0.0164794921875
0.0172119140625
0.014099121093749998
0.012084960937499998
0.010437011718749998
0.017578125
0.020874023437499997
0.020690917968749997
0.022155761718749997
0.0201416015625
0.0238037109375
0.03387451171875
0.03369140624999999
0.0325927734375
0.03405761718749999
0.03570556640625
0.04266357421875
0.04248046875
0.04302978515625
0.04302978515625
0.04302978515625
0.0439453125
0.04614257812499999
0.04174804687499999
0.03973388671874999
0.04302978515625
0.04687499999999999
0.04559326171874999
0.04595947265625
0.04559326171874999
0.0439453125
0.04174804687499999
0.04229736328125
0.0435791015625
0.0439453125
0.0435791015625
0.043212890625
0.0421142578125
0.04193115234375
0.04193115234375
0.04138183593749999
0.040283203125
0.04266357421875
0.04431152343749999
0.04046630859374999
0.040283203125
0.04541015625
0.0472412109375
0.04669189453125
0.047607421875
0.047607421875
0.04797363281249999
0.04650878906249999
0.04998779296875
0.052001953125
0.05072021484375
0.04779052734374999
0.04412841796875
0.04101562499999999
0.04833984374999999
0.04998779296875
0.0472412109375
0.04815673828125
0.04962158203125
0.047607421875
0.04101562499999999
0.04101562499999999
0.040283203125
0.0377197265625
0.04064941406249999
0.0380859375
0.034423828125
0.03222656249999999
0.03057861328125
0.03515625
0.0380859375
0.03826904296874999
0.03314208984374999
0.030944824218749993
0.03167724609375
0.03405761718749999
0.03057861328125
0.029296875
0.023986816406249997
0.0260009765625
0.0216064453125
0.0223388671875
0.01995849609375
0.023437499999999997
0.02471923828125
0.02252197265625
0.019775390624999997
0.020874023437499997
0.015930175781249997
0.020874023437499997
0.020507812499999997
0.02142333984375
0.01776123046875
0.019775390624999997
0.01885986328125
0.01904296875
0.017578125
0.0146484375
0.009521484375
0.008422851562499998
0.0062255859375
0.0062255859375
0.007507324218749999
0.015197753906249998
0.02197265625
0.0260009765625
0.034423828125
0.04339599609375
0.05603027343749999
0.06298828125
0.06976318359375
0.06884765625
0.066650390625
0.06427001953125
0.065185546875
0.06738281249999999
0.07049560546875
0.06939697265625
0.0640869140625
0.05401611328125
0.05126953125
0.0523681640625
0.05584716796875
0.052734375
0.04376220703125
0.03515625
0.03186035156249999
0.0263671875
0.020874023437499997
0.01666259765625
0.010437011718749998
0.006591796875
0.00823974609375
0.010986328125
0.01080322265625
0.00897216796875
0.011535644531249998
0.00677490234375
0.008056640624999998
0.012268066406249998
0.0047607421875
0.0029296874999999996
0.0010986328125
0.0025634765624999996
0.006958007812499999
0.007507324218749999
0.0062255859375
0.005859374999999999
0.005126953124999999
0.0010986328125
-0.0010986328125
-0.00274658203125
-0.0091552734375
-0.0076904296875
-0.0091552734375
-0.009521484375
-0.01007080078125
-0.010986328125
-0.008056640624999998
-0.00732421875
-0.01116943359375
-0.009887695312499998
-0.00714111328125
-0.009887695312499998
-0.008056640624999998
-0.005859374999999999
-0.003662109375
-0.0007324218749999999
0.0007324218749999999
0.0014648437499999998
0.00439453125
-0.0014648437499999998
-0.0186767578125
-0.03314208984374999
-0.05126953125
-0.084228515625
-0.11022949218749999
-0.10821533203125
-0.08276367187499999
-0.034423828125
0.006958007812499999
0.087158203125
0.23767089843749997
0.42773437499999994
0.6553344726562499
0.8649902343749999
1.0755615234375
1.269287109375
1.3656005859375
1.3857421874999998
1.38427734375
1.3765869140625
1.3674316406249998
1.270751953125
0.7353515625
0.12011718749999999
-0.3790283203125
-0.61981201171875
-0.65716552734375
-0.5899658203124999
-0.48431396484375
-0.39678955078124994
-0.32611083984374994
-0.25909423828125
-0.201416015625
-0.16809082031249997
-0.14978027343749997
-0.14190673828125
-0.14520263671874997
-0.15106201171875
-0.15527343749999997
-0.16168212890624997
-0.16644287109375
-0.16937255859375
-0.1728515625
-0.17138671875
-0.1673583984375
-0.16333007812499997
-0.1600341796875
-0.16021728515625
-0.1549072265625
-0.15545654296874997
-0.14996337890625
-0.1435546875
-0.139892578125
-0.13568115234375
-0.13330078125
-0.1300048828125
-0.12744140624999997
-0.12469482421874999
-0.12139892578125
-0.11865234375000001
-0.12176513671875
-0.11865234375000001
-0.11315917968749999
-0.1109619140625
-0.10876464843749999
-0.1036376953125
-0.10235595703124999
-0.1025390625
-0.09741210937499999
-0.0926513671875
-0.09118652343749999
-0.08624267578125
-0.08367919921875
-0.08111572265625
-0.07470703125
-0.07745361328125
-0.07745361328125
-0.07525634765624999
-0.076904296875
-0.07580566406249999
-0.07525634765624999
-0.07159423828125
-0.06738281249999999
-0.06646728515625
-0.0633544921875
-0.062255859375
-0.06097412109374999
-0.05639648437499999
-0.05383300781249999
-0.0498046875
-0.04925537109374999
-0.04650878906249999
-0.0435791015625
-0.04266357421875
-0.0384521484375
-0.03698730468749999
-0.032958984375
-0.0325927734375
-0.028015136718749997
-0.019592285156249997
-0.012451171875
-0.0020141601562499996
-0.00054931640625
0.003662109375
0.00787353515625
0.009887695312499998
0.0087890625
0.008422851562499998
0.0113525390625
0.012268066406249998
0.019592285156249997
0.0238037109375
0.03240966796875
0.0399169921875
0.04229736328125
0.0457763671875
0.0494384765625
0.05328369140625
0.0545654296875
0.05566406249999999
0.05877685546875
0.06500244140625
0.06829833984374999
0.07818603515625
0.09228515624999999
0.09814453124999999
0.0992431640625
0.09851074218749999
0.09667968749999999
0.09466552734375
0.099609375
0.10675048828125
0.10986328125
0.11059570312499999
0.11151123046874999
0.1153564453125
0.11242675781249999
0.10986328125
0.10491943359374999
0.100341796875
0.099609375
0.09393310546875
0.0845947265625
0.07305908203124999
0.05914306640624999
0.04101562499999999
0.024169921874999997
0.00567626953125
-0.0087890625
-0.024169921874999997
-0.04010009765624999
-0.05712890625
-0.07379150390624999
-0.084228515625
-0.0926513671875
-0.1043701171875
-0.11499023437500001
-0.12377929687499997
-0.13330078125
-0.14245605468749997
-0.15161132812499997
-0.16131591796875
-0.169189453125
-0.17541503906249997
-0.183837890625
-0.1871337890625
-0.18695068359374997
-0.18749999999999997
-0.19024658203125
-0.19482421874999997
-0.19482421874999997
-0.1915283203125
-0.185302734375
-0.18621826171874997
-0.1885986328125
-0.192626953125
-0.18969726562499997
-0.1864013671875
-0.17999267578125
-0.17559814453125
-0.170654296875
-0.16571044921875
-0.164794921875
-0.15948486328124997
-0.1571044921875
-0.15545654296874997
-0.15380859375
-0.15545654296874997
-0.1563720703125
-0.1585693359375
-0.16021728515625
-0.15893554687499997
-0.15820312499999997
-0.1578369140625
-0.1556396484375
-0.1519775390625
-0.147216796875
-0.14208984375
-0.138427734375
-0.13677978515625
-0.135498046875
-0.14154052734374997
-0.1435546875
-0.14044189453124997
-0.13641357421875
-0.1292724609375
-0.128173828125
-0.1292724609375
-0.13275146484375
-0.13531494140624997
-0.13385009765624997
-0.129638671875
-0.12982177734375
-0.12799072265625
-0.12194824218749999
-0.11993408203125
-0.11700439453124999
-0.117919921875
-0.12158203124999999
-0.12176513671875
-0.11627197265625
-0.11022949218749999
-0.104736328125
-0.10601806640624999
-0.1080322265625
-0.1058349609375
-0.1029052734375
-0.1014404296875
-0.10107421875
-0.10327148437499999
-0.10345458984375
-0.106201171875
-0.10766601562499999
-0.10089111328125
-0.0933837890625
-0.0882568359375
-0.0823974609375
-0.08038330078124999
-0.08587646484374999
-0.08917236328124999
-0.08990478515624999
-0.090087890625
-0.08917236328124999
-0.08697509765625
-0.08551025390625
-0.08349609374999999
-0.08166503906249999
-0.0772705078125
-0.07946777343749999
-0.0780029296875
-0.07232666015625
-0.07177734375
-0.07653808593749999
-0.07763671874999999
-0.07745361328125
-0.07470703125
-0.07452392578124999
-0.0728759765625
-0.06903076171875
-0.06427001953125
-0.06079101562499999
-0.0545654296875
-0.0567626953125
-0.0611572265625
-0.0640869140625
-0.06573486328125
-0.05932617187500001
-0.05474853515624999
-0.05657958984374999
-0.05914306640624999
-0.05859375
-0.05694580078124999
-0.05383300781249999
-0.0494384765625
-0.04449462890625
-0.04486083984375
-0.04193115234375
-0.04138183593749999
-0.044677734375
-0.0501708984375
-0.04907226562499999
-0.04779052734374999
-0.04888916015624999
-0.04962158203125
-0.0435791015625
-0.04632568359375
-0.04779052734374999
-0.04559326171874999
-0.03790283203124999
-0.02984619140625
-0.023437499999999997
-0.020507812499999997
-0.016113281249999997
-0.015380859375
-0.017578125
-0.01116943359375
-0.009521484375
-0.011718749999999998
-0.015380859375
-0.020324707031249997
-0.022705078125
-0.0201416015625
-0.016845703124999997
-0.015930175781249997
-0.009704589843749998
-0.00787353515625
-0.01666259765625
-0.02142333984375
-0.01776123046875
-0.0146484375
-0.00933837890625
-0.01318359375
-0.017578125
-0.020874023437499997
-0.02197265625
-0.0201416015625
-0.01263427734375
-0.015014648437499998
-0.019775390624999997
-0.01922607421875
-0.01904296875
-0.01666259765625
-0.0164794921875
-0.01446533203125
-0.010253906249999998
-0.0106201171875
-0.009521484375
-0.006042480468749999
-0.0047607421875
-0.006958007812499999
-0.012084960937499998
-0.0135498046875
-0.010437011718749998
-0.010437011718749998
-0.0034790039062499996
0.0007324218749999999
0.0014648437499999998
0.0087890625
0.008056640624999998
0.00439453125
0.00036621093749999995
0.0
0.005126953124999999
0.005126953124999999
0.006042480468749999
0.010986328125
0.016113281249999997
0.01080322265625
0.009704589843749998
0.0014648437499999998
0.0010986328125
0.003662109375
0.0047607421875
0.01263427734375
0.0142822265625
0.008056640624999998
0.00860595703125
0.0113525390625
0.014099121093749998
0.012084960937499998
0.0010986328125
-0.00091552734375
-0.0018310546875
-0.002197265625
0.0025634765624999996
0.00439453125
0.003662109375
0.01300048828125
0.022705078125
0.03186035156249999
0.04449462890625
0.05657958984374999
0.06317138671875
0.06298828125
0.0589599609375
0.05712890625
0.06243896484374999
0.06390380859375
0.06390380859375
0.06005859374999999
0.05584716796875
0.05749511718750001
0.05401611328125
0.04595947265625
0.0380859375
0.03387451171875
0.03918457031249999
0.03240966796875
0.01629638671875
0.003662109375
-0.0054931640625
-0.00274658203125
0.00439453125
0.010986328125
0.008422851562499998
0.00457763671875
0.0025634765624999996
0.00238037109375
0.0029296874999999996
-0.00091552734375
-0.0034332275390625
0.002197265625
0.012084960937499998
0.01556396484375
0.00860595703125
0.0032958984375
0.00311279296875
0.00714111328125
0.006958007812499999
0.00311279296875
-0.0012817382812499998
0.0012817382812499998
0.005126953124999999
0.005126953124999999
0.0062255859375
0.009704589843749998
0.015380859375
0.015930175781249997
0.016845703124999997
0.020874023437499997
0.02197265625
0.02105712890625
0.019775390624999997
0.0216064453125
0.020690917968749997
0.02288818359375
0.0263671875
0.03131103515625
0.03387451171875
0.029113769531249997
0.02288818359375
0.024169921874999997
0.02252197265625
0.0223388671875
0.01556396484375
0.00384521484375
-0.0146484375
-0.03936767578125
-0.06701660156249999
-0.08203124999999999
-0.06134033203124999
-0.014099121093749998
0.0509033203125
0.12194824218749999
0.24755859374999994
0.435791015625
0.6782226562499999
0.9016113281249999
1.11785888671875
1.32513427734375
1.4384765624999998
1.46337890625
1.46319580078125
1.453857421875
1.44287109375
1.24713134765625
0.6859130859375
0.05987548828124999
-0.42901611328125
-0.6447143554687499
-0.662841796875
-0.6071777343749999
-0.5108642578125
-0.41583251953125
-0.33526611328124994
-0.26953124999999994
-0.2017822265625
-0.15289306640625
-0.13018798828124997
-0.11645507812499999
-0.11132812499999999
-0.11187744140625
-0.117919921875
-0.11920166015624999
-0.11828613281249999
-0.1212158203125
-0.12506103515625
-0.1314697265625
-0.1318359375
-0.1300048828125
-0.11865234375000001
-0.1080322265625
-0.10125732421874999
-0.1025390625
-0.10455322265624999
-0.10327148437499999
-0.09613037109375
-0.09301757812499999
-0.0999755859375
-0.09558105468749999
-0.08935546875
-0.07946777343749999
-0.08020019531249999
-0.08020019531249999
-0.07653808593749999
-0.0703125
-0.05877685546875
-0.05987548828124999
-0.06427001953125
-0.06555175781249999
-0.05950927734375
-0.054931640625
-0.04687499999999999
-0.04541015625
-0.05255126953124999
-0.05346679687499999
-0.04888916015624999
-0.0450439453125
-0.04302978515625
-0.0428466796875
-0.03753662109375
-0.030944824218749993
-0.023437499999999997
-0.02288818359375
-0.024169921874999997
-0.0252685546875
-0.02490234375
-0.015930175781249997
-0.008422851562499998
-0.008056640624999998
-0.01116943359375
-0.01318359375
-0.00933837890625
0.002197265625
0.012268066406249998
0.01776123046875
0.01776123046875
0.0157470703125
0.02105712890625
0.02288818359375
0.024169921874999997
0.025634765625
0.029296875
0.03753662109375
0.04687499999999999
0.0589599609375
0.06298828125
0.07452392578124999
0.07836914062499999
0.0787353515625
0.07946777343749999
0.07836914062499999
0.08294677734375
0.08477783203124999
0.09045410156249999
0.0970458984375
0.100341796875
0.10400390625
0.10601806640624999
0.11572265625
0.12506103515625
0.140625
0.14813232421875
0.14703369140625
0.15216064453125
0.1541748046875
0.15289306640625
0.16021728515625
0.1611328125
0.16058349609375
0.15673828124999997
0.15875244140625
0.16571044921875
0.17138671875
0.175048828125
0.17413330078124997
0.17559814453125
0.17724609374999997
0.173583984375
0.1787109375
0.18823242187499997
0.18823242187499997
0.1776123046875
0.16900634765624997
0.16021728515625
0.16571044921875
0.16314697265624997
0.14593505859375
0.1292724609375
0.11132812499999999
0.08862304687499999
0.07086181640624999
0.04687499999999999
0.02252197265625
0.0034790039062499996
-0.016113281249999997
-0.03387451171875
-0.05108642578125
-0.07342529296875
-0.087890625
-0.09228515624999999
-0.1036376953125
-0.11883544921874999
-0.1314697265625
-0.140625
-0.15032958984374997
-0.14996337890625
-0.15051269531249997
-0.16040039062499997
-0.1710205078125
-0.17541503906249997
-0.1757354736328125
-0.17724609374999997
-0.1787109375
-0.18603515624999997
-0.1878662109375
-0.18365478515624997
-0.1787109375
-0.17852783203125
-0.17724609374999997
-0.17175292968749997
-0.16937255859375
-0.167724609375
-0.16699218749999997
-0.1622314453125
-0.15655517578125
-0.15124511718749997
-0.14675903320312497
-0.1431884765625
-0.147216796875
-0.14630126953125
-0.14611816406249997
-0.14300537109375
-0.1376953125
-0.13385009765624997
-0.13110351562499997
-0.1307373046875
-0.13018798828124997
-0.1300048828125
-0.1285400390625
-0.125244140625
-0.12011718749999999
-0.1171875
-0.11242675781249999
-0.1065673828125
-0.10125732421874999
-0.10107421875
-0.10107421875
-0.10052490234374999
-0.101806640625
-0.09667968749999999
-0.094482421875
-0.09429931640625
-0.0926513671875
-0.0908203125
-0.087158203125
-0.08129882812499999
-0.07708740234375
-0.07891845703125
-0.08074951171875
-0.08276367187499999
-0.0845947265625
-0.08642578125
-0.0849609375
-0.08166503906249999
-0.07855224609375
-0.07452392578124999
-0.0703125
-0.06445312499999999
-0.06243896484374999
-0.06005859374999999
-0.06536865234375
-0.07049560546875
-0.06939697265625
-0.06536865234375
-0.06134033203124999
-0.065185546875
-0.06683349609375
-0.06719970703125
-0.0677490234375
-0.06701660156249999
-0.0633544921875
-0.06298828125
-0.0640869140625
-0.0589599609375
-0.05438232421874999
-0.05657958984374999
-0.05731201171874999
-0.05712890625
-0.0604248046875
-0.05804443359375
-0.05657958984374999
-0.05584716796875
-0.05108642578125
-0.04559326171874999
-0.04339599609375
-0.03936767578125
-0.04083251953124999
-0.04302978515625
-0.04101562499999999
-0.04449462890625
-0.04833984374999999
-0.04486083984375
-0.04101562499999999
-0.04083251953124999
-0.0450439453125
-0.04412841796875
-0.04083251953124999
-0.03790283203124999
-0.03881835937499999
-0.03918457031249999
-0.0380859375
-0.037353515625
-0.03405761718749999
-0.032958984375
-0.03204345703125
-0.03277587890624999
-0.0377197265625
-0.040283203125
-0.04138183593749999
-0.0399169921875
-0.03240966796875
-0.02947998046875
-0.02490234375
-0.02362060546875
-0.0238037109375
-0.024536132812499997
-0.02197265625
-0.0186767578125
-0.01904296875
-0.02105712890625
-0.019775390624999997
-0.02105712890625
-0.020874023437499997
-0.0201416015625
-0.01885986328125
-0.0216064453125
-0.02490234375
-0.02490234375
-0.021240234375
-0.0172119140625
-0.01116943359375
-0.0007324218749999999
0.00091552734375
-0.0007324218749999999
-0.0010986328125
-0.002197265625
-0.003662109375
-0.0032958984375
-0.005126953124999999
-0.006958007812499999
-0.00732421875
-0.00567626953125
-0.0020141601562499996
0.0029296874999999996
0.0020141601562499996
0.002197265625
0.005126953124999999
0.005126953124999999
0.008056640624999998
0.008056640624999998
0.00640869140625
0.00732421875
0.006958007812499999
0.0062255859375
0.00732421875
0.004028320312499999
0.00714111328125
0.008056640624999998
0.004943847656249999
0.003662109375
0.00567626953125
0.006591796875
0.005859374999999999
0.0062255859375
0.00567626953125
0.0076904296875
0.005126953124999999
0.00439453125
0.00457763671875
0.00457763671875
0.006042480468749999
0.0087890625
0.010986328125
0.011535644531249998
0.012084960937499998
0.015014648437499998
0.019775390624999997
0.01922607421875
0.023437499999999997
0.0201416015625
0.020507812499999997
0.02362060546875
0.023071289062499997
0.024353027343749997
0.0216064453125
0.022155761718749997
0.01629638671875
0.0128173828125
0.0142822265625
0.010437011718749998
0.014831542968750002
0.019775390624999997
0.0186767578125
0.01629638671875
0.015014648437499998
0.015014648437499998
0.0142822265625
0.01904296875
0.020690917968749997
0.01922607421875
0.02142333984375
0.03021240234375
0.03515625
0.04669189453125
0.05749511718750001
0.06701660156249999
0.071044921875
0.07489013671874999
0.0721435546875
0.07379150390624999
0.0728759765625
0.0706787109375
0.07159423828125
0.07177734375
0.0732421875
0.069580078125
0.06555175781249999
0.05822753906249999
0.0498046875
0.0439453125
0.0428466796875
0.03607177734375
0.026733398437499997
0.01922607421875
0.016113281249999997
0.019409179687499997
0.01812744140625
0.016845703124999997
0.01556396484375
0.016845703124999997
0.018310546875
0.019775390624999997
0.0157470703125
0.012451171875
0.010986328125
0.0087890625
0.012268066406249998
0.012084960937499998
0.004943847656249999
0.0014648437499999998
0.005126953124999999
0.01373291015625
0.01739501953125
0.015380859375
0.012451171875
0.01007080078125
0.01007080078125
0.010437011718749998
0.010253906249999998
0.01116943359375
0.009704589843749998
0.009521484375
0.0113525390625
0.01080322265625
0.00933837890625
0.0087890625
0.008056640624999998
0.006591796875
0.0091552734375
0.009887695312499998
0.0146484375
0.0201416015625
0.0164794921875
0.0164794921875
0.018493652343749997
0.018493652343749997
0.01373291015625
0.004943847656249999
0.0012817382812499998
-0.011718749999999998
-0.034423828125
-0.06555175781249999
-0.09374999999999999
-0.101806640625
-0.08020019531249999
-0.03277587890624999
0.0216064453125
0.09667968749999999
0.23492431640624997
0.42919921875
0.6708984375
0.88916015625
1.1048583984375
1.3048095703125
1.4249267578125
1.45257568359375
1.45257568359375
1.4443359374999998
1.43408203125
1.2923583984375
0.73406982421875
0.09320068359375
-0.41253662109374994
-0.642333984375
-0.6760253906249999
-0.6073608398437499
-0.494384765625
-0.38873291015625
-0.3072509765625
-0.23767089843749997
-0.17907714843749997
-0.1435546875
-0.13092041015625
-0.12158203124999999
-0.1171875
-0.119384765625
-0.12835693359374997
-0.1307373046875
-0.13037109375
-0.1314697265625
-0.12835693359374997
-0.12982177734375
-0.13256835937499997
-0.13110351562499997
-0.12744140624999997
-0.12213134765625
-0.113525390625
-0.1109619140625
-0.1083984375
-0.10675048828125
-0.10546875
-0.10089111328125
-0.09814453124999999
-0.09667968749999999
-0.09045410156249999
-0.087890625
-0.08441162109375
-0.08056640625
-0.07818603515625
-0.07232666015625
-0.0677490234375
-0.06610107421875
-0.06555175781249999
-0.0692138671875
-0.06591796875
-0.06097412109374999
-0.0596923828125
-0.06097412109374999
-0.06005859374999999
-0.057861328125
-0.05346679687499999
-0.04962158203125
-0.04632568359375
-0.04431152343749999
-0.043212890625
-0.04119873046875
-0.0421142578125
-0.03955078124999999
-0.0355224609375
-0.03717041015625
-0.03076171875
-0.02490234375
-0.01904296875
-0.01904296875
-0.0179443359375
-0.017028808593749997
-0.01300048828125
-0.00823974609375
-0.006958007812499999
-0.00439453125
0.0012817382812499998
0.004028320312499999
0.00677490234375
0.014099121093749998
0.0186767578125
0.02178955078125
0.023437499999999997
0.028015136718749997
0.032958984375
0.02947998046875
0.03790283203124999
0.03918457031249999
0.0439453125
0.047607421875
0.05621337890624999
0.05529785156249999
0.05767822265625
0.0633544921875
0.065185546875
0.06683349609375
0.07580566406249999
0.0823974609375
0.08734130859374999
0.08953857421874999
0.08935546875
0.09594726562499999
0.098876953125
0.10675048828125
0.10638427734374999
0.10766601562499999
0.10931396484375
0.1190185546875
0.12652587890625
0.13128662109375
0.13037109375
0.13531494140624997
0.14208984375
0.14392089843749997
0.1431884765625
0.1435546875
0.145751953125
0.15527343749999997
0.16314697265624997
0.16278076171875
0.16131591796875
0.16406249999999997
0.16278076171875
0.15875244140625
0.15692138671874997
0.15069580078125
0.1376953125
0.12908935546875
0.1175537109375
0.10107421875
0.0849609375
0.06719970703125
0.05364990234375
0.03826904296874999
0.020690917968749997
0.00439453125
-0.0113525390625
-0.025634765625
-0.04064941406249999
-0.05529785156249999
-0.06738281249999999
-0.07745361328125
-0.08935546875
-0.09814453124999999
-0.10876464843749999
-0.11389160156249999
-0.11975097656249999
-0.12213134765625
-0.1263427734375
-0.12744140624999997
-0.13110351562499997
-0.1373291015625
-0.13751220703124997
-0.14208984375
-0.144287109375
-0.1446533203125
-0.14794921874999997
-0.15216064453125
-0.15106201171875
-0.1534423828125
-0.15307617187499997
-0.15325927734375
-0.14996337890625
-0.146484375
-0.148681640625
-0.14739990234375
-0.14373779296875
-0.1314697265625
-0.12487792968749999
-0.11865234375000001
-0.11260986328125
-0.11517333984374999
-0.11828613281249999
-0.11297607421875
-0.10693359374999999
-0.10400390625
-0.10601806640624999
-0.10894775390625
-0.10876464843749999
-0.1029052734375
-0.09869384765624999
-0.09503173828125
-0.09594726562499999
-0.09301757812499999
-0.0919189453125
-0.0933837890625
-0.09246826171875
-0.0897216796875
-0.0882568359375
-0.0867919921875
-0.08624267578125
-0.08129882812499999
-0.076904296875
-0.076904296875
-0.07379150390624999
-0.0732421875
-0.0728759765625
-0.075439453125
-0.07635498046875
-0.07653808593749999
-0.07745361328125
-0.0692138671875
-0.06719970703125
-0.07232666015625
-0.07653808593749999
-0.07635498046875
-0.06738281249999999
-0.06353759765625
-0.0615234375
-0.05767822265625
-0.066650390625
-0.06719970703125
-0.06463623046875
-0.0648193359375
-0.062255859375
-0.0648193359375
-0.0703125
-0.0684814453125
-0.05603027343749999
-0.047607421875
-0.05126953125
-0.05364990234375
-0.052001953125
-0.0545654296875
-0.05511474609374999
-0.04925537109374999
-0.0450439453125
-0.04248046875
-0.04376220703125
-0.0421142578125
-0.0399169921875
-0.03918457031249999
-0.0439453125
-0.04119873046875
-0.0421142578125
-0.0421142578125
-0.03717041015625
-0.03387451171875
-0.037353515625
-0.0384521484375
-0.0380859375
-0.03881835937499999
-0.04248046875
-0.0421142578125
-0.04101562499999999
-0.03790283203124999
-0.0435791015625
-0.0435791015625
-0.0377197265625
-0.03515625
-0.03900146484375
-0.04266357421875
-0.03918457031249999
-0.0362548828125
-0.03515625
-0.0347900390625
-0.03662109375
-0.04101562499999999
-0.03277587890624999
-0.025817871093749997
-0.023254394531249997
-0.024353027343749997
-0.02197265625
-0.022705078125
-0.023437499999999997
-0.020874023437499997
-0.025634765625
-0.02618408203125
-0.023437499999999997
-0.01666259765625
-0.020324707031249997
-0.02471923828125
-0.024169921874999997
-0.0252685546875
-0.0223388671875
-0.018310546875
-0.023437499999999997
-0.027648925781249997
-0.028747558593750003
-0.025634765625
-0.030029296874999997
-0.029663085937500003
-0.029663085937500003
-0.02252197265625
-0.0172119140625
-0.0087890625
-0.00677490234375
-0.0113525390625
-0.00640869140625
-0.0047607421875
-0.00311279296875
-0.0034790039062499996
-0.0025634765624999996
-0.01080322265625
-0.006958007812499999
-0.004943847656249999
-0.0032958984375
-0.0010986328125
-0.0025634765624999996
-0.00567626953125
-0.01300048828125
-0.011718749999999998
-0.011535644531249998
-0.010986328125
-0.006042480468749999
-0.0054931640625
-0.006591796875
-0.00439453125
0.0
-0.002197265625
-0.002197265625
0.00054931640625
-0.00238037109375
-0.00018310546874999997
0.0032958984375
0.003662109375
0.00439453125
0.007507324218749999
0.004943847656249999
0.0029296874999999996
0.01116943359375
0.010437011718749998
0.010253906249999998
0.0091552734375
0.00311279296875
0.00164794921875
0.0054931640625
0.00439453125
0.00640869140625
0.0135498046875
0.015197753906249998
0.0146484375
0.015380859375
0.015930175781249997
0.014831542968750002
0.017028808593749997
0.01739501953125
0.020507812499999997
0.020690917968749997
0.0186767578125
0.0172119140625
0.0135498046875
0.013916015624999998
0.013366699218749998
0.011718749999999998
0.00714111328125
0.004943847656249999
0.00531005859375
0.00732421875
0.016113281249999997
0.028198242187499997
0.0289306640625
0.0238037109375
0.02471923828125
0.020507812499999997
0.0142822265625
0.012268066406249998
0.016113281249999997
0.014099121093749998
0.016113281249999997
0.01629638671875
0.015014648437499998
0.0146484375
0.015930175781249997
0.015014648437499998
0.011535644531249998
0.009521484375
0.013366699218749998
0.019592285156249997
0.029296875
0.04119873046875
0.0567626953125
0.06573486328125
0.07177734375
0.076904296875
0.07763671874999999
0.0750732421875
0.06939697265625
0.07580566406249999
0.076171875
0.07562255859374999
0.072509765625
0.06610107421875
0.0611572265625
0.05804443359375
0.0523681640625
0.04632568359375
0.04174804687499999
0.03753662109375
0.03424072265625
0.025817871093749997
0.02490234375
0.017578125
0.0142822265625
0.0164794921875
0.01666259765625
0.0128173828125
0.0135498046875
0.01300048828125
0.010986328125
0.015380859375
0.01190185546875
0.012268066406249998
0.016113281249999997
0.019775390624999997
0.01666259765625
0.01629638671875
0.011535644531249998
0.01318359375
0.01116943359375
0.0076904296875
0.00787353515625
0.004943847656249999
0.0018310546875
-0.00238037109375
-0.0029296874999999996
0.0014648437499999998
0.00732421875
0.008056640624999998
0.004211425781249999
0.004211425781249999
0.003662109375
0.00732421875
0.006591796875
0.004943847656249999
0.00238037109375
0.0034790039062499996
0.00531005859375
0.005126953124999999
0.006591796875
0.009887695312499998
0.010253906249999998
0.011718749999999998
0.00787353515625
0.00439453125
0.0047607421875
0.00036621093749999995
-0.00531005859375
-0.018310546875
-0.03881835937499999
-0.06884765625
-0.09429931640625
-0.09594726562499999
-0.07452392578124999
-0.026733398437499997
0.015014648437499998
0.0926513671875
0.24151611328125
0.43743896484375
0.664306640625
0.872314453125
1.0799560546875
1.278076171875
1.4110107421875
1.44158935546875
1.44287109375
1.4351806640625
1.4251098632812498
1.3985595703124998
0.87158203125
0.24829101562500003
-0.28948974609374994
-0.56964111328125
-0.63079833984375
-0.563232421875
-0.4595947265625
-0.36749267578125
-0.29937744140625
-0.235107421875
-0.17742919921875
-0.14483642578125
-0.13531494140624997
-0.13348388671875
-0.13476562499999997
-0.14245605468749997
-0.149688720703125
-0.15435791015624997
-0.1593017578125
-0.16278076171875
-0.16076660156249997
-0.15802001953124997
-0.1585693359375
-0.1585693359375
-0.15618896484374997
-0.1527099609375
-0.15179443359374997
-0.14978027343749997
-0.147216796875
-0.14501953125
-0.136962890625
-0.1285400390625
-0.12405395507812501
-0.11865234375000001
-0.11645507812499999
-0.11700439453124999
-0.11590576171875
-0.1109619140625
-0.10986328125
-0.10693359374999999
-0.1007080078125
-0.09613037109375
-0.09594726562499999
-0.09777832031249999
-0.09741210937499999
-0.09741210937499999
-0.09558105468749999
-0.09374999999999999
-0.08990478515624999
-0.0849609375
-0.0787353515625
-0.07232666015625
-0.06738281249999999
-0.06427001953125
-0.06024169921875
-0.057861328125
-0.05767822265625
-0.05639648437499999
-0.0523681640625
-0.04779052734374999
-0.04431152343749999
-0.040283203125
-0.03643798828125
-0.0355224609375
-0.0355224609375
-0.03204345703125
-0.0252685546875
-0.01666259765625
-0.010253906249999998
-0.006958007812499999
-0.00732421875
-0.00640869140625
-0.00714111328125
-0.00823974609375
-0.00531005859375
-0.0007324218749999999
-0.00036621093749999995
0.002197265625
0.008056640624999998
0.0201416015625
0.03240966796875
0.04522705078124999
0.04833984374999999
0.0523681640625
0.05126953125
0.0523681640625
0.05749511718750001
0.05639648437499999
0.06060791015625
0.0677490234375
0.076171875
0.08624267578125
0.09283447265625
0.09484863281249999
0.09741210937499999
0.09979248046875
0.0992431640625
0.10107421875
0.10400390625
0.11114501953125
0.11883544921874999
0.12487792968749999
0.12725830078125
0.12890624999999997
0.1307373046875
0.13458251953125
0.1409912109375
0.14611816406249997
0.14996337890625
0.1534423828125
0.1541748046875
0.15435791015624997
0.15893554687499997
0.1571044921875
0.15545654296874997
0.1563720703125
0.15307617187499997
0.15106201171875
0.15509033203125
0.1549072265625
0.14978027343749997
0.13934326171875
0.12469482421874999
0.1083984375
0.09521484375
0.079833984375
0.06372070312499999
0.04449462890625
0.02838134765625
0.01904296875
-0.004028320312499999
-0.02471923828125
-0.03533935546875
-0.0450439453125
-0.05566406249999999
-0.06646728515625
-0.08258056640625
-0.09301757812499999
-0.10308837890624999
-0.1083984375
-0.1142578125
-0.11956787109375
-0.1263427734375
-0.13330078125
-0.14154052734374997
-0.1494140625
-0.1527099609375
-0.15362548828125
-0.15087890625
-0.14794921874999997
-0.14776611328125
-0.14392089843749997
-0.14300537109375
-0.14611816406249997
-0.14776611328125
-0.15124511718749997
-0.1483154296875
-0.1395263671875
-0.136962890625
-0.141357421875
-0.14410400390624997
-0.14172363281249997
-0.1395263671875
-0.14080810546875
-0.13970947265625
-0.13476562499999997
-0.129638671875
-0.126708984375
-0.1256103515625
-0.12652587890625
-0.12268066406249999
-0.123046875
-0.12451171875
-0.1204833984375
-0.11737060546874999
-0.1116943359375
-0.1036376953125
-0.1036376953125
-0.10601806640624999
-0.10327148437499999
-0.10546875
-0.1072998046875
-0.10894775390625
-0.10894775390625
-0.1025390625
-0.10107421875
-0.0992431640625
-0.09832763671875
-0.09466552734375
-0.094482421875
-0.10107421875
-0.1025390625
-0.09832763671875
-0.0963134765625
-0.09521484375
-0.09722900390625
-0.09777832031249999
-0.09393310546875
-0.0882568359375
-0.08184814453125
-0.07763671874999999
-0.07562255859374999
-0.07452392578124999
-0.079833984375
-0.08056640625
-0.079833984375
-0.0838623046875
-0.0849609375
-0.08258056640625
-0.07928466796875
-0.076171875
-0.07653808593749999
-0.07836914062499999
-0.07630920410156249
-0.07379150390624999
-0.06976318359375
-0.06719970703125
-0.06793212890625
-0.065185546875
-0.06024169921875
-0.05383300781249999
-0.0498046875
-0.05108642578125
-0.04907226562499999
-0.0501708984375
-0.05346679687499999
-0.05914306640624999
-0.062255859375
-0.0604248046875
-0.06060791015625
-0.06024169921875
-0.04962158203125
-0.0450439453125
-0.04742431640624999
-0.043212890625
-0.0347900390625
-0.0347900390625
-0.03717041015625
-0.03698730468749999
-0.04010009765624999
-0.03662109375
-0.02984619140625
-0.026733398437499997
-0.023986816406249997
-0.022155761718749997
-0.02197265625
-0.020874023437499997
-0.02362060546875
-0.030944824218749993
-0.034423828125
-0.03204345703125
-0.0274658203125
-0.025634765625
-0.0238037109375
-0.029663085937500003
-0.029296875
-0.029113769531249997
-0.0325927734375
-0.0355224609375
-0.03405761718749999
-0.02288818359375
-0.02178955078125
-0.0179443359375
-0.02252197265625
-0.02490234375
-0.020507812499999997
-0.013366699218749998
-0.00933837890625
-0.009521484375
-0.012451171875
-0.006042480468749999
-0.00311279296875
-0.005126953124999999
-0.0091552734375
-0.01116943359375
-0.0164794921875
-0.02471923828125
-0.029663085937500003
-0.029296875
-0.020874023437499997
-0.020690917968749997
-0.02288818359375
-0.015380859375
-0.00677490234375
-0.0012817382812499998
-0.00054931640625
-0.004211425781249999
-0.0029296874999999996
0.0029296874999999996
0.00164794921875
-0.00054931640625
-0.00018310546874999997
-0.00439453125
-0.002197265625
-0.00274658203125
-0.0091552734375
-0.00860595703125
-0.009521484375
-0.009521484375
-0.00677490234375
-0.004943847656249999
0.0
0.005859374999999999
0.00732421875
0.00531005859375
0.00457763671875
0.00439453125
0.004028320312499999
0.00787353515625
0.00274658203125
0.0014648437499999998
0.0012817382812499998
0.0029754638671875
-0.002197265625
-0.00091552734375
-0.0029296874999999996
0.00018310546874999997
0.0018310546875
0.0007324218749999999
-0.0012817382812499998
-0.00311279296875
-0.0091552734375
-0.0087890625
-0.00714111328125
-0.00238037109375
0.0029296874999999996
0.00238037109375
0.004211425781249999
0.006591796875
0.002197265625
0.00238037109375
0.0091552734375
0.00732421875
0.00238037109375
0.00311279296875
0.00531005859375
0.0014648437499999998
-0.00054931640625
-0.0020141601562499996
0.00091552734375
0.0047607421875
0.006591796875
0.0025634765624999996
0.004211425781249999
0.01007080078125
0.0106201171875
0.016113281249999997
0.012084960937499998
0.01263427734375
0.00860595703125
0.0032958984375
0.004028320312499999
0.00677490234375
0.00860595703125
0.009521484375
0.00677490234375
0.0018310546875
-0.0007324218749999999
0.00384521484375
0.00311279296875
0.00531005859375
0.00860595703125
0.010437011718749998
0.01116943359375
0.0146484375
0.0260009765625
0.03607177734375
0.04156494140624999
0.05163574218749999
0.057861328125
0.06756591796875
0.06591796875
0.06079101562499999
0.0648193359375
0.069580078125
0.0684814453125
0.06298828125
0.06628417968749999
0.06060791015625
0.05401611328125
0.05584716796875
0.0545654296875
0.04907226562499999
0.04870605468749999
0.05035400390625
0.040283203125
0.029113769531249997
0.01995849609375
0.009887695312499998
0.010986328125
0.01904296875
0.021240234375
0.0146484375
0.012451171875
0.013916015624999998
0.021240234375
0.024169921874999997
0.021240234375
0.023437499999999997
0.020324707031249997
0.012084960937499998
0.0014648437499999998
0.0020599365234375
0.00439453125
0.01190185546875
0.02288818359375
0.030029296874999997
0.02984619140625
0.0260009765625
0.015014648437499998
0.0172119140625
0.024353027343749997
0.02362060546875
0.016113281249999997
0.01300048828125
0.005859374999999999
0.00732421875
0.016845703124999997
0.0252685546875
0.02545166015625
0.027832031249999997
0.023437499999999997
0.01776123046875
0.0172119140625
0.0146484375
0.0142822265625
0.015014648437499998
0.021240234375
0.02471923828125
0.028015136718749997
0.03717041015625
0.03753662109375
0.028015136718749997
0.0146484375
-0.0032958984375
-0.0146484375
-0.0531005859375
-0.0875244140625
-0.09466552734375
-0.07965087890625
-0.032958984375
0.037353515625
0.12011718749999999
0.2490234375
0.42718505859375
0.6639404296875
0.8946533203125
1.109619140625
1.3150634765625
1.4249267578125
1.449462890625
1.4472656249999998
1.4395751953125
1.4296875
1.2901611328124998
0.7133789062499999
0.05950927734375
-0.46142578125
-0.6956176757812499
-0.7177734375
-0.6514892578125
-0.53759765625
-0.436248779296875
-0.35192871093749994
-0.27923583984375
-0.216796875
-0.17578125
-0.15252685546874997
-0.140625
-0.13385009765624997
-0.1263427734375
-0.12652587890625
-0.12872314453125
-0.12744140624999997
-0.1329345703125
-0.13238525390625
-0.123046875
-0.1160888671875
-0.11645507812499999
-0.11883544921874999
-0.120849609375
-0.11389160156249999
-0.1021728515625
-0.0963134765625
-0.0963134765625
-0.09796142578125
-0.10107421875
-0.100341796875
-0.0926513671875
-0.08770751953124999
-0.087158203125
-0.0853271484375
-0.07965087890625
-0.07928466796875
-0.0838623046875
-0.08367919921875
-0.08020019531249999
-0.07232666015625
-0.0706787109375
-0.0677490234375
-0.05767822265625
-0.04907226562499999
-0.04687499999999999
-0.0509033203125
-0.05328369140625
-0.05181884765625
-0.052734375
-0.04888916015624999
-0.04431152343749999
-0.04248046875
-0.0380859375
-0.0362548828125
-0.03369140624999999
-0.0311279296875
-0.02838134765625
-0.027648925781249997
-0.02142333984375
-0.015930175781249997
-0.010437011718749998
-0.00640869140625
-0.006958007812499999
-0.007507324218749999
-0.00567626953125
-0.00164794921875
0.0025634765624999996
0.0087890625
0.01373291015625
0.0223388671875
0.02728271484375
0.027832031249999997
0.0333251953125
0.04119873046875
0.04156494140624999
0.04193115234375
0.0457763671875
0.04687499999999999
0.05072021484375
0.05126953125
0.05657958984374999
0.06738281249999999
0.08001708984375
0.09429931640625
0.09832763671875
0.09741210937499999
0.09374999999999999
0.09686279296874999
0.10400390625
0.1142578125
0.11700439453124999
0.11810302734375
0.12744140624999997
0.1336669921875
0.14410400390624997
0.15179443359374997
0.15728759765625
0.16314697265624997
0.16497802734375
0.1688232421875
0.17138671875
0.17687988281249997
0.177978515625
0.181640625
0.18182373046874997
0.18054199218749997
0.18017578125
0.1812744140625
0.18035888671875
0.18237304687499997
0.1856689453125
0.181640625
0.18182373046874997
0.18237304687499997
0.1834716796875
0.18237304687499997
0.17596435546874997
0.1629638671875
0.15307617187499997
0.135498046875
0.11389160156249999
0.09374999999999999
0.0736083984375
0.05328369140625
0.03222656249999999
0.0128173828125
-0.00732421875
-0.023071289062499997
-0.04669189453125
-0.07049560546875
-0.08843994140624999
-0.104736328125
-0.11553955078124999
-0.12194824218749999
-0.1314697265625
-0.1409912109375
-0.150146484375
-0.1593017578125
-0.16625976562499997
-0.17047119140624997
-0.17321777343749997
-0.1787109375
-0.18310546875
-0.185302734375
-0.18841552734374997
-0.194091796875
-0.19647216796875
-0.19903564453125
-0.2017822265625
-0.2021484375
-0.19757080078124997
-0.19775390625
-0.19335937499999997
-0.1904296875
-0.1907958984375
-0.19061279296875
-0.1922607421875
-0.19573974609375
-0.1944580078125
-0.1900634765625
-0.1849365234375
-0.181640625
-0.17889404296875
-0.17431640625
-0.16845703125
-0.1658935546875
-0.167724609375
-0.1658935546875
-0.166168212890625
-0.1571044921875
-0.14666748046874997
-0.14392089843749997
-0.14520263671874997
-0.14556884765625
-0.14520263671874997
-0.14501953125
-0.1431884765625
-0.14172363281249997
-0.140625
-0.13934326171875
-0.13403320312499997
-0.12744140624999997
-0.12139892578125
-0.11334228515624999
-0.10711669921875
-0.11260986328125
-0.11315917968749999
-0.11114501953125
-0.11151123046874999
-0.11041259765625
-0.1043701171875
-0.10125732421874999
-0.1021728515625
-0.10198974609374999
-0.1014404296875
-0.09796142578125
-0.0926513671875
-0.09283447265625
-0.094482421875
-0.09521484375
-0.0908203125
-0.08404541015624999
-0.0780029296875
-0.07763671874999999
-0.07836914062499999
-0.07653808593749999
-0.071044921875
-0.0732421875
-0.07525634765624999
-0.07653808593749999
-0.07525634765624999
-0.06976318359375
-0.07177734375
-0.069580078125
-0.06427001953125
-0.06170654296874999
-0.06079101562499999
-0.0589599609375
-0.0626220703125
-0.06610107421875
-0.0633544921875
-0.05621337890624999
-0.0596923828125
-0.062255859375
-0.06298828125
-0.05804443359375
-0.05474853515624999
-0.05291748046875
-0.05511474609374999
-0.05932617187500001
-0.057861328125
-0.05291748046875
-0.04742431640624999
-0.04119873046875
-0.04083251953124999
-0.04302978515625
-0.04687499999999999
-0.04797363281249999
-0.05291748046875
-0.05218505859375
-0.04559326171874999
-0.04010009765624999
-0.04522705078124999
-0.0435791015625
-0.04101562499999999
-0.03881835937499999
-0.03918457031249999
-0.0421142578125
-0.03918457031249999
-0.04248046875
-0.03955078124999999
-0.0355224609375
-0.03506469726562499
-0.0399169921875
-0.03881835937499999
-0.03662109375
-0.032958984375
-0.02508544921875
-0.02984619140625
-0.028747558593750003
-0.029296875
-0.026916503906249997
-0.019775390624999997
-0.02142333984375
-0.020874023437499997
-0.022155761718749997
-0.025817871093749997
-0.024169921874999997
-0.02197265625
-0.01739501953125
-0.0172119140625
-0.016845703124999997
-0.015380859375
-0.01446533203125
-0.01666259765625
-0.015197753906249998
-0.009887695312499998
-0.006958007812499999
-0.0076904296875
-0.01007080078125
-0.009704589843749998
-0.006591796875
-0.0087890625
-0.011535644531249998
-0.0087890625
-0.0087890625
-0.00439453125
-0.0047607421875
-0.0076904296875
-0.00714111328125
-0.00860595703125
-0.004211425781249999
-0.0047607421875
0.0014648437499999998
0.0007324218749999999
0.00018310546874999997
-0.00036621093749999995
0.0
0.0
0.0010986328125
0.0025634765624999996
0.00054931640625
0.006042480468749999
0.00439453125
0.005859374999999999
0.009704589843749998
0.01190185546875
0.010437011718749998
0.01190185546875
0.01318359375
0.0142822265625
0.009887695312499998
0.008056640624999998
0.009704589843749998
0.010253906249999998
0.01007080078125
0.008422851562499998
0.005859374999999999
0.006591796875
0.01116943359375
0.0142822265625
0.0146484375
0.020874023437499997
0.025817871093749997
0.0238037109375
0.02508544921875
0.024353027343749997
0.025817871093749997
0.02618408203125
0.02197265625
0.0238037109375
0.02947998046875
0.02728271484375
0.02105712890625
0.020690917968749997
0.01904296875
0.0146484375
0.01446533203125
0.0142822265625
0.019592285156249997
0.018493652343749997
0.017578125
0.008056640624999998
0.006958007812499999
0.01263427734375
0.0128173828125
0.0179443359375
0.0263671875
0.03314208984374999
0.0450439453125
0.05841064453125001
0.06591796875
0.07269287109374999
0.07415771484375
0.0728759765625
0.0670623779296875
0.06884765625
0.06939697265625
0.07397460937499999
0.07196044921874999
0.0721435546875
0.0699462890625
0.069580078125
0.06866455078125
0.06500244140625
0.05383300781249999
0.04614257812499999
0.03698730468749999
0.028747558593750003
0.020507812499999997
0.0142822265625
0.01904296875
0.0192718505859375
0.02197265625
0.0186767578125
0.01904296875
0.028015136718749997
0.029113769531249997
0.027648925781249997
0.025817871093749997
0.025634765625
0.029296875
0.025634765625
0.025817871093749997
0.027648925781249997
0.0260009765625
0.027648925781249997
0.0311279296875
0.026733398437499997
0.025817871093749997
0.0252685546875
0.025634765625
0.02471923828125
0.026916503906249997
0.029663085937500003
0.028198242187499997
0.025817871093749997
0.0263671875
0.02545166015625
0.022155761718749997
0.019775390624999997
0.020507812499999997
0.030029296874999997
0.033050537109375
0.03369140624999999
0.0347900390625
0.03717041015625
0.0362548828125
0.0377197265625
0.03955078124999999
0.03900146484375
0.04083251953124999
0.04431152343749999
0.04101562499999999
0.03717041015625
0.02197265625
0.0062255859375
-0.021240234375
-0.04742431640624999
-0.05914306640624999
-0.0509033203125
-0.018310546875
0.03222656249999999
0.09484863281249999
0.21368408203125
0.38964843749999994
0.6064453124999999
0.8291015625
1.0345458984375
1.23779296875
1.3985595703124998
1.4454345703125
1.45111083984375
1.4454345703125
1.4344482421875
1.424560546875
1.0968017578125
0.48815917968749994
-0.11022949218749999
-0.49401855468749994
-0.61669921875
-0.5891876220703125
-0.48614501953125
-0.3779296875
-0.28912353515625
-0.21807861328125
-0.15820312499999997
-0.11242675781249999
-0.08990478515624999
-0.08020019531249999
-0.07910156249999999
-0.08258056640625
-0.0889892578125
-0.098876953125
-0.10565185546874999
-0.106201171875
-0.10858154296875
-0.11151123046874999
-0.10821533203125
-0.10327148437499999
-0.1025390625
-0.1021728515625
-0.09558105468749999
-0.09503173828125
-0.094482421875
-0.08880615234375
-0.07910156249999999
-0.07763671874999999
-0.07452392578124999
-0.07489013671874999
-0.07836914062499999
-0.0728759765625
-0.06738281249999999
-0.06591796875
-0.05584716796875
-0.05511474609374999
-0.05181884765625
-0.04870605468749999
-0.04595947265625
-0.0435791015625
-0.04541015625
-0.0457763671875
-0.04248046875
-0.0311279296875
-0.02728271484375
-0.025634765625
-0.02362060546875
-0.0238037109375
-0.0216064453125
-0.01904296875
-0.01922607421875
-0.0172119140625
-0.0128173828125
-0.011535644531249998
-0.018310546875
-0.01556396484375
-0.01116943359375
-0.004028320312499999
-0.0014648437499999998
-0.006591796875
-0.005859374999999999
-0.0010986328125
0.00274658203125
0.00640869140625
0.009521484375
0.01666259765625
0.020507812499999997
0.018493652343749997
0.01904296875
0.023437499999999997
0.0274658203125
0.028747558593750003
0.03222656249999999
0.03533935546875
0.04229736328125
0.0457763671875
0.0498046875
0.04522705078124999
0.04705810546874999
0.04742431640624999
0.05749511718750001
0.06628417968749999
0.06719970703125
0.069580078125
0.07470703125
0.07965087890625
0.08587646484374999
0.08862304687499999
0.09429931640625
0.09869384765624999
0.1014404296875
0.1065673828125
0.11041259765625
0.11865234375000001
0.12744140624999997
0.13476562499999997
0.13385009765624997
0.135498046875
0.13934326171875
0.140625
0.1446533203125
0.14758300781249997
0.14794921874999997
0.1494140625
0.14959716796875
0.15527343749999997
0.15875244140625
0.1600341796875
0.1593017578125
0.1611328125
0.1600341796875
0.15692138671874997
0.15179443359374997
0.14758300781249997
0.14373779296875
0.13714599609375
0.13275146484375
0.12451171875
0.11334228515624999
0.100341796875
0.08166503906249999
0.06811523437499999
0.0545654296875
0.0384521484375
0.019409179687499997
-0.0007324218749999999
-0.01904296875
-0.03277587890624999
-0.04541015625
-0.05694580078124999
-0.07086181640624999
-0.07910156249999999
-0.0860595703125
-0.09777832031249999
-0.1116943359375
-0.120849609375
-0.12615966796874997
-0.1358642578125
-0.13916015625
-0.14208984375
-0.14794921874999997
-0.1527099609375
-0.14794921874999997
-0.14501953125
-0.14373779296875
-0.14886474609374997
-0.15032958984374997
-0.15234375
-0.15234375
-0.15161132812499997
-0.15124511718749997
-0.1549072265625
-0.15234375
-0.14392089843749997
-0.140625
-0.139892578125
-0.14630126953125
-0.14172363281249997
-0.1373291015625
-0.13970947265625
-0.13970947265625
-0.1322021484375
-0.12103271484374997
-0.11462402343749999
-0.11297607421875
-0.11590576171875
-0.12030029296874999
-0.11810302734375
-0.11499023437500001
-0.11865234375000001
-0.12158203124999999
-0.1204833984375
-0.11975097656249999
-0.1142578125
-0.1109619140625
-0.11242675781249999
-0.10986328125
-0.10693359374999999
-0.09832763671875
-0.09942626953124999
-0.09622192382812499
-0.094482421875
-0.09521484375
-0.0908203125
-0.09063720703125
-0.09100341796874999
-0.085693359375
-0.08642578125
-0.0853271484375
-0.08514404296875
-0.08367919921875
-0.08221435546874999
-0.08093261718749999
-0.08294677734375
-0.08184814453125
-0.07946777343749999
-0.07653808593749999
-0.07415771484375
-0.0699462890625
-0.0703125
-0.071044921875
-0.06976318359375
-0.069580078125
-0.06756591796875
-0.06884765625
-0.0714111328125
-0.07086181640624999
-0.0615234375
-0.0640869140625
-0.06628417968749999
-0.0611572265625
-0.05694580078124999
-0.05603027343749999
-0.05822753906249999
-0.05767822265625
-0.0531005859375
-0.05749511718750001
-0.0640869140625
-0.06005859374999999
-0.06134033203124999
-0.0615234375
-0.0611572265625
-0.05712890625
-0.05419921875
-0.05163574218749999
-0.0435791015625
-0.04522705078124999
-0.0501708984375
-0.04431152343749999
-0.0450439453125
-0.04486083984375
-0.04046630859374999
-0.0377197265625
-0.04193115234375
-0.03826904296874999
-0.032958984375
-0.0399169921875
-0.04064941406249999
-0.04101562499999999
-0.04119873046875
-0.04248046875
-0.04815673828125
-0.04632568359375
-0.03936767578125
-0.0347900390625
-0.03405761718749999
-0.03369140624999999
-0.03167724609375
-0.0362548828125
-0.03186035156249999
-0.03405761718749999
-0.03314208984374999
-0.03350830078124999
-0.04046630859374999
-0.04174804687499999
-0.03717041015625
-0.0333251953125
-0.0333251953125
-0.02618408203125
-0.02362060546875
-0.019592285156249997
-0.023437499999999997
-0.02490234375
-0.02178955078125
-0.01922607421875
-0.021240234375
-0.02142333984375
-0.026916503906249997
-0.025634765625
-0.02490234375
-0.02655029296875
-0.025634765625
-0.0263671875
-0.0223388671875
-0.0135498046875
-0.01629638671875
-0.022155761718749997
-0.0157470703125
-0.013916015624999998
-0.019409179687499997
-0.021240234375
-0.01904296875
-0.01666259765625
-0.007507324218749999
-0.010437011718749998
-0.004943847656249999
-0.0012817382812499998
-0.0018310546875
0.00091552734375
-0.0029296874999999996
-0.00091552734375
0.0047607421875
0.00274658203125
0.0018310546875
0.0113525390625
0.007507324218749999
0.00823974609375
0.00274658203125
0.010986328125
0.0087890625
0.0029296874999999996
0.00640869140625
0.012268066406249998
0.00860595703125
0.003662109375
0.00677490234375
0.0146484375
0.014099121093749998
0.0029296874999999996
0.00933837890625
0.023437499999999997
0.02105712890625
0.02178955078125
0.020507812499999997
0.01922607421875
0.019409179687499997
0.0142822265625
0.017578125
0.01812744140625
0.016113281249999997
0.01556396484375
0.0146484375
0.032958984375
0.02984619140625
0.020874023437499997
0.015014648437499998
0.009887695312499998
0.01190185546875
0.0157470703125
0.03204345703125
0.03076171875
0.022705078125
0.019409179687499997
0.008422851562499998
0.004028320312499999
0.0
0.004943847656249999
0.00787353515625
0.0087890625
0.010986328125
0.0164794921875
0.0172119140625
0.0146484375
0.015930175781249997
0.017578125
0.01263427734375
0.006958007812499999
0.0087890625
0.0106201171875
0.008056640624999998
0.012268066406249998
0.0186767578125
0.014099121093749998
0.01666259765625
0.025817871093749997
0.03460693359375
0.0428466796875
0.05255126953124999
0.0648193359375
0.069580078125
0.0721435546875
0.0714111328125
0.06793212890625
0.07635498046875
0.08020019531249999
0.08148193359375
0.07525634765624999
0.07928466796875
0.06701660156249999
0.05804443359375
0.05364990234375
0.054931640625
0.0457763671875
0.03698730468749999
0.026916503906249997
0.01318359375
0.0076904296875
0.0076904296875
0.00933837890625
0.01318359375
0.004943847656249999
0.00677490234375
0.0113525390625
0.0113525390625
0.010437011718749998
0.010986328125
0.00457763671875
0.004028320312499999
0.00823974609375
-0.0014648437499999998
-0.0014648437499999998
0.0054931640625
0.01190185546875
0.0128173828125
0.0142822265625
0.01318359375
0.0146484375
0.01446533203125
0.01263427734375
0.0062255859375
0.010437011718749998
0.00567626953125
0.0047607421875
0.00640869140625
0.0087890625
0.01556396484375
0.01116943359375
0.0076904296875
0.00311279296875
0.00732421875
0.01116943359375
0.01629638671875
0.0128173828125
0.00860595703125
0.00677490234375
0.015930175781249997
0.014831542968750002
0.007507324218749999
-0.00036621093749999995
-0.0014648437499999998
0.0047607421875
0.0025634765624999996
-0.010986328125
-0.020507812499999997
-0.030944824218749993
-0.05529785156249999
-0.07122802734374999
-0.08404541015624999
-0.05548095703125
-0.0238037109375
0.020324707031249997
0.11279296874999999
0.277587890625
0.48010253906250006
0.7005615234375
0.90289306640625
1.1044921875
1.3095703125
1.4077148437499998
1.42767333984375
1.4260253906249998
1.4179687499999998
1.40826416015625
1.236328125
0.69140625
0.0728759765625
-0.41033935546874994
-0.6207275390625
-0.6439819335937499
-0.5614013671874999
-0.45172119140625
-0.35632324218749994
-0.28564453125
-0.221923828125
-0.16625976562499997
-0.141357421875
-0.1322021484375
-0.1314697265625
-0.1314697265625
-0.1468505859375
-0.15399169921874997
-0.15509033203125
-0.14959716796875
-0.1593017578125
-0.15472412109375
-0.15142822265625
-0.1611328125
-0.1556396484375
-0.14392089843749997
-0.14025878906249997
-0.14208984375
-0.13330078125
-0.13385009765624997
-0.12487792968749999
-0.12579345703125
-0.11993408203125
-0.11828613281249999
-0.11444091796875
-0.11480712890625
-0.11315917968749999
-0.11059570312499999
-0.1007080078125
-0.09246826171875
-0.09136962890625
-0.08166503906249999
-0.0867919921875
-0.08770751953124999
-0.07910156249999999
-0.076904296875
-0.07470703125
-0.0714111328125
-0.07763671874999999
-0.07965087890625
-0.0732421875
-0.05694580078124999
-0.04486083984375
-0.04797363281249999
-0.038726806640625
-0.0384521484375
-0.04010009765624999
-0.04046630859374999
-0.03918457031249999
-0.0384521484375
-0.035888671875
-0.02728271484375
-0.02197265625
-0.01776123046875
-0.0157470703125
-0.01080322265625
-0.00714111328125
-0.00439453125
-0.00567626953125
0.00823974609375
0.0113525390625
0.017578125
0.0076904296875
0.009521484375
0.008422851562499998
0.0128173828125
0.016845703124999997
0.028747558593750003
0.031494140625
0.03222656249999999
0.024169921874999997
0.04229736328125
0.04431152343749999
0.05035400390625
0.0523681640625
0.05126953125
0.05145263671875
0.05731201171874999
0.0640869140625
0.06738281249999999
0.07580566406249999
0.07580566406249999
0.08166503906249999
0.08166503906249999
0.0849609375
0.09411621093749999
0.09722900390625
0.1036376953125
0.11590576171875
0.12945556640625
0.13623046874999997
0.13421630859375003
0.13897705078124997
0.13421630859375003
0.13623046874999997
0.14154052734374997
0.14245605468749997
0.15307617187499997
0.15161132812499997
0.14556884765625
0.15087890625
0.15545654296874997
0.148681640625
0.15325927734375
0.1593017578125
0.15820312499999997
0.1593017578125
0.15527343749999997
0.15142822265625
0.139892578125
0.1380615234375
0.14245605468749997
0.1300048828125
0.1153564453125
0.10455322265624999
0.0889892578125
0.07177734375
0.04815673828125
0.03460693359375
0.00860595703125
-0.01373291015625
-0.022705078125
-0.0362548828125
-0.04559326171874999
-0.06024169921875
-0.07342529296875
-0.08551025390625
-0.098876953125
-0.10876464843749999
-0.11828613281249999
-0.12176513671875
-0.125244140625
-0.14025878906249997
-0.1468505859375
-0.148681640625
-0.1446533203125
-0.145751953125
-0.14776611328125
-0.1541748046875
-0.15673828124999997
-0.1585693359375
-0.15802001953124997
-0.15673828124999997
-0.1600341796875
-0.1527099609375
-0.15948486328124997
-0.14959716796875
-0.14849853515625
-0.15069580078125
-0.156005859375
-0.15655517578125
-0.146484375
-0.1373291015625
-0.13641357421875
-0.1409912109375
-0.142822265625
-0.14392089843749997
-0.13110351562499997
-0.125244140625
-0.12103271484374997
-0.1116943359375
-0.1083984375
-0.11663818359374999
-0.11114501953125
-0.10766601562499999
-0.10455322265624999
-0.10711669921875
-0.11114501953125
-0.11865234375000001
-0.11663818359374999
-0.1025390625
-0.1025390625
-0.10107421875
-0.09356689453125
-0.09045410156249999
-0.09320068359375
-0.087158203125
-0.08312988281249999
-0.08148193359375
-0.08056640625
-0.08056640625
-0.07745361328125
-0.06976318359375
-0.06884765625
-0.07159423828125
-0.06610107421875
-0.0677490234375
-0.06463623046875
-0.06793212890625
-0.07470703125
-0.07580566406249999
-0.06811523437499999
-0.07086181640624999
-0.0750732421875
-0.0706787109375
-0.069580078125
-0.0743408203125
-0.06628417968749999
-0.05419921875
-0.05126953125
-0.06280517578125
-0.0640869140625
-0.06738281249999999
-0.06683349609375
-0.06463623046875
-0.06628417968749999
-0.06939697265625
-0.06884765625
-0.06756591796875
-0.0703125
-0.07012939453124999
-0.05859375
-0.05181884765625
-0.0523681640625
-0.05804443359375
-0.05621337890624999
-0.06005859374999999
-0.05731201171874999
-0.04998779296875
-0.04925537109374999
-0.04888916015624999
-0.05566406249999999
-0.05145263671875
-0.05767822265625
-0.05987548828124999
-0.0567626953125
-0.06005859374999999
-0.06060791015625
-0.04101562499999999
-0.0355224609375
-0.03918457031249999
-0.04101562499999999
-0.0435791015625
-0.04083251953124999
-0.03826904296874999
-0.04156494140624999
-0.04779052734374999
-0.050537109375
-0.0472412109375
-0.04522705078124999
-0.043212890625
-0.04248046875
-0.04266357421875
-0.0421142578125
-0.0421142578125
-0.04266357421875
-0.04302978515625
-0.0509033203125
-0.05126953125
-0.04522705078124999
-0.0428466796875
-0.0311279296875
-0.03314208984374999
-0.029113769531249997
-0.03076171875
-0.029296875
-0.0333251953125
-0.0362548828125
-0.029296875
-0.022155761718749997
-0.025817871093749997
-0.03076171875
-0.03387451171875
-0.03369140624999999
-0.02838134765625
-0.031494140625
-0.028564453125
-0.02508544921875
-0.01446533203125
-0.014831542968750002
-0.017578125
-0.0216064453125
-0.0128173828125
-0.01190185546875
-0.010437011718749998
-0.011535644531249998
-0.005126953124999999
0.004028320312499999
-0.00439453125
-0.0087890625
-0.0164794921875
-0.011718749999999998
-0.00933837890625
-0.0172119140625
-0.0201416015625
-0.01556396484375
-0.01373291015625
-0.01080322265625
-0.0029296874999999996
-0.005859374999999999
-0.0106201171875
-0.01318359375
-0.00677490234375
0.00091552734375
-0.00714111328125
-0.006042480468749999
-0.0062255859375
-0.006042480468749999
-0.00677490234375
-0.0032958984375
-0.00054931640625
-0.0014648437499999998
-0.00091552734375
0.00457763671875
0.0010986328125
0.00677490234375
0.00897216796875
0.0029296874999999996
0.004943847656249999
0.0010986328125
-0.0014648437499999998
-0.00439453125
-0.0054931640625
0.0025634765624999996
0.004943847656249999
0.003662109375
-0.004211425781249999
-0.004943847656249999
-0.0018310546875
0.006042480468749999
0.01263427734375
0.01666259765625
0.0260009765625
0.03881835937499999
0.04742431640624999
0.05822753906249999
0.071044921875
0.0743408203125
0.07196044921874999
0.07177734375
0.06243896484374999
0.06610107421875
0.07305908203124999
0.07598876953125
0.07196044921874999
0.071044921875
0.06738281249999999
0.061889648437499986
0.05657958984374999
0.0567626953125
0.04705810546874999
0.03790283203124999
0.028747558593750003
0.01885986328125
0.012084960937499998
0.006958007812499999
0.0
-0.004028320312499999
-0.00714111328125
-0.00640869140625
-0.00531005859375
-0.002197265625
0.003662109375
0.004028320312499999
0.0
-0.004943847656249999
-0.0054931640625
-0.0025634765624999996
-0.00018310546874999997
0.0012817382812499998
0.006958007812499999
0.00732421875
0.0010986328125
0.0020141601562499996
0.002197265625
-0.00054931640625
-0.00439453125
0.0025634765624999996
0.004211425781249999
0.0029296874999999996
0.004943847656249999
0.0007324218749999999
0.002197265625
0.005859374999999999
0.0062255859375
0.00238037109375
0.006958007812499999
0.00567626953125
0.005126953124999999
0.010437011718749998
0.00823974609375
0.00732421875
0.01263427734375
0.0157470703125
0.004211425781249999
0.006591796875
0.012451171875
0.003662109375
0.00640869140625
0.00677490234375
-0.0087890625
-0.025634765625
-0.06372070312499999
-0.0772705078125
-0.06756591796875
-0.04046630859374999
0.009704589843749998
0.0611572265625
0.13623046874999997
0.28143310546875
0.47387695312499994
0.6910400390625
0.892822265625
1.0909423828125
1.2758789062499998
1.4044189453125
1.435546875
1.4360961914062498
1.4285888671875
1.418701171875
1.1396484374999998
0.6390380859375
0.0545654296875
-0.406494140625
-0.6077270507812499
-0.6234283447265625
-0.5460205078125
-0.4361572265625
-0.34423828125
-0.27410888671875
-0.2054443359375
-0.14978027343749997
-0.120849609375
-0.10858154296875
-0.09942626953124999
-0.10601806640624999
-0.11572265625
-0.12268066406249999
-0.12286376953125
-0.129638671875
-0.12103271484374997
-0.119384765625
-0.11645507812499999
-0.11773681640625
-0.11553955078124999
-0.10327148437499999
-0.10052490234374999
-0.10968017578125
-0.10821533203125
-0.10601806640624999
-0.10693359374999999
-0.10052490234374999
-0.09722900390625
-0.0889892578125
-0.07232666015625
-0.0721435546875
-0.07379150390624999
-0.07379150390624999
-0.07159423828125
-0.07177734375
-0.0677490234375
-0.066650390625
-0.0648193359375
-0.06372070312499999
-0.06884765625
-0.065185546875
-0.06463623046875
-0.06463623046875
-0.0626220703125
-0.06829833984374999
-0.06079101562499999
-0.05529785156249999
-0.06005859374999999
-0.05914306640624999
-0.05163574218749999
-0.0501708984375
-0.04687499999999999
-0.04431152343749999
-0.03936767578125
-0.03314208984374999
-0.0311279296875
-0.03387451171875
-0.025634765625
-0.0263671875
-0.023254394531249997
-0.0124053955078125
-0.01116943359375
-0.010986328125
-0.0047607421875
-0.0087890625
-0.00384521484375
0.0091552734375
0.01318359375
0.014831542968750002
0.019775390624999997
0.015197753906249998
0.013366699218749998
0.01904296875
0.0289306640625
0.03515625
0.0380859375
0.04266357421875
0.03277587890624999
0.03918457031249999
0.04650878906249999
0.05145263671875
0.05511474609374999
0.05712890625
0.06243896484374999
0.0684814453125
0.06811523437499999
0.07855224609375
0.08660888671874999
0.08587646484374999
0.087158203125
0.09301757812499999
0.09777832031249999
0.10858154296875
0.1072998046875
0.11059570312499999
0.11315917968749999
0.12652587890625
0.13110351562499997
0.13403320312499997
0.13659667968749997
0.1322021484375
0.14245605468749997
0.15106201171875
0.14959716796875
0.15985107421875
0.167724609375
0.16040039062499997
0.1556396484375
0.15948486328124997
0.1585693359375
0.1614990234375
0.15362548828125
0.15545654296874997
0.1343994140625
0.128173828125
0.1329345703125
0.1270751953125
0.106201171875
0.08624267578125
0.072509765625
0.05639648437499999
0.03350830078124999
0.02545166015625
0.00238037109375
-0.024536132812499997
-0.0399169921875
-0.05364990234375
-0.08056640625
-0.09503173828125
-0.10400390625
-0.10638427734374999
-0.11773681640625
-0.11279296874999999
-0.13568115234375
-0.13110351562499997
-0.14392089843749997
-0.13330078125
-0.147216796875
-0.14978027343749997
-0.16076660156249997
-0.174957275390625
-0.1724853515625
-0.17230224609375
-0.177978515625
-0.18731689453124997
-0.18200683593749997
-0.1834716796875
-0.18511962890625
-0.18145751953125
-0.1673583984375
-0.16864013671875
-0.17138671875
-0.1666259765625
-0.16186523437499997
-0.15838623046875
-0.16406249999999997
-0.150146484375
-0.144287109375
-0.14666748046874997
-0.1322021484375
-0.13970947265625
-0.14190673828125
-0.1307373046875
-0.13751220703124997
-0.1336669921875
-0.128173828125
-0.12744140624999997
-0.126708984375
-0.11682128906250001
-0.11206054687499999
-0.10638427734374999
-0.10272216796875
-0.10491943359374999
-0.11334228515624999
-0.11846923828124999
-0.11572265625
-0.10491943359374999
-0.10015869140625
-0.08624267578125
-0.07891845703125
-0.08331298828125
-0.08349609374999999
-0.087890625
-0.0853271484375
-0.0732421875
-0.06829833984374999
-0.07379150390624999
-0.0732421875
-0.07635498046875
-0.08221435546874999
-0.06756591796875
-0.05364990234375
-0.052001953125
-0.05566406249999999
-0.06298828125
-0.05511474609374999
-0.052734375
-0.04083251953124999
-0.0501708984375
-0.03515625
-0.030029296874999997
-0.05126953125
-0.05419921875
-0.052001953125
-0.05731201171874999
-0.0545654296875
-0.047607421875
-0.0498046875
-0.04522705078124999
-0.04742431640624999
-0.0377197265625
-0.03881835937499999
-0.04595947265625
-0.03955078124999999
-0.0377197265625
-0.028564453125
-0.03900146484375
-0.03405761718749999
-0.03607177734375
-0.03973388671874999
-0.04449462890625
-0.03057861328125
-0.0347900390625
-0.0311279296875
-0.02655029296875
-0.02142333984375
-0.03021240234375
-0.01739501953125
-0.0142822265625
-0.0238037109375
-0.01812744140625
-0.017578125
-0.0179443359375
-0.01904296875
-0.023071289062499997
-0.021240234375
-0.0128173828125
-0.00238037109375
-0.00439453125
-0.0029296874999999996
-0.00274658203125
0.0029296874999999996
-0.00567626953125
-0.012451171875
-0.010437011718749998
-0.00567626953125
-0.0113525390625
-0.015380859375
-0.014831542968750002
-0.023071289062499997
-0.009704589843749998
0.0032958984375
-0.004943847656249999
-0.019409179687499997
-0.023071289062499997
-0.0172119140625
-0.0274658203125
-0.012451171875
-0.00933837890625
-0.0034790039062499996
-0.0020141601562499996
0.00311279296875
0.0034790039062499996
0.0007324218749999999
-0.005859374999999999
-0.008056640624999998
0.00164794921875
0.002197265625
0.009521484375
0.010253906249999998
0.014099121093749998
0.024353027343749997
0.029296875
0.005126953124999999
0.0164794921875
0.020507812499999997
0.019775390624999997
0.01776123046875
0.0142822265625
0.02471923828125
0.006042480468749999
0.0076904296875
0.014099121093749998
0.01190185546875
0.012451171875
0.011718749999999998
0.0076904296875
0.012451171875
0.004943847656249999
0.008056640624999998
0.004028320312499999
0.006591796875
0.009887695312499998
0.0014648437499999998
-0.00036621093749999995
0.0
-0.00018310546874999997
0.0
0.0029296874999999996
-0.00164794921875
-0.002197265625
0.004943847656249999
0.00823974609375
0.0062255859375
0.009887695312499998
0.011718749999999998
0.00274658203125
-0.011718749999999998
-0.010253906249999998
-0.008422851562499998
-0.004211425781249999
0.0062255859375
-0.0007324218749999999
-0.003662109375
-0.0062255859375
-0.004028320312499999
0.0
-0.0054931640625
-0.0113525390625
-0.00091552734375
-0.0091552734375
-0.0087890625
-0.0087890625
-0.0164794921875
-0.008056640624999998
-0.00531005859375
-0.00457763671875
-0.00714111328125
-0.01190185546875
-0.0106201171875
-0.02197265625
-0.0260009765625
-0.0186767578125
-0.008422851562499998
0.002197265625
0.006591796875
0.01776123046875
0.0274658203125
0.03790283203124999
0.034423828125
0.04156494140624999
0.05511474609374999
0.05529785156249999
0.04614257812499999
0.0498046875
0.05401611328125
0.054931640625
0.05419921875
0.05731201171874999
0.03533935546875
0.04431152343749999
0.04412841796875
0.02490234375
0.0062255859375
0.0047607421875
0.0047607421875
-0.00274658203125
-0.01263427734375
-0.024353027343749997
-0.013366699218749998
-0.0135498046875
-0.016113281249999997
-0.02197265625
-0.016845703124999997
-0.01373291015625
-0.012451171875
-0.00531005859375
-0.011535644531249998
-0.013916015624999998
-0.0135498046875
-0.0172119140625
-0.0054931640625
-0.01007080078125
-0.019409179687499997
-0.01263427734375
-0.009704589843749998
-0.01300048828125
-0.0135498046875
-0.012268066406249998
-0.01922607421875
-0.013366699218749998
-0.0142822265625
-0.0135498046875
-0.004211425781249999
-0.00439453125
-0.0076904296875
-0.0113525390625
-0.026733398437499997
-0.0172119140625
-0.012268066406249998
-0.00439453125
-0.009521484375
-0.01629638671875
-0.0179443359375
-0.00439453125
-0.004211425781249999
-0.006591796875
-0.00091552734375
0.00439453125
0.003662109375
-0.00311279296875
-0.008422851562499998
-0.03955078124999999
-0.0706787109375
-0.09521484375
-0.098876953125
-0.08294677734375
-0.0380859375
0.01318359375
0.06390380859375
0.17010498046875
0.3431396484375
0.5527954101562499
0.7496337890624999
0.9424438476562499
1.1319580078125
1.3165283203125
1.4176025390625
1.4388427734374998
1.4366455078125
1.42803955078125
1.2758789062499998
0.8444824218749999
0.2955322265625
-0.23034667968749997
-0.5582885742187499
-0.6519927978515624
-0.6075439453124999
-0.514892578125
-0.41583251953125
-0.32080078124999994
-0.2515869140625
-0.1907958984375
-0.13275146484375
-0.11260986328125
-0.09741210937499999
-0.09045410156249999
-0.099609375
-0.10876464843749999
-0.10766601562499999
-0.10949707031249999
-0.11572265625
-0.1204833984375
-0.11883544921874999
-0.11590576171875
-0.11132812499999999
-0.11206054687499999
-0.11682128906250001
-0.1021728515625
-0.1025390625
-0.09814453124999999
-0.09594726562499999
-0.0999755859375
-0.09210205078125
-0.07580566406249999
-0.07122802734374999
-0.0743408203125
-0.07763671874999999
-0.06903076171875
-0.08001708984375
-0.0706787109375
-0.06628417968749999
-0.05566406249999999
-0.06298828125
-0.06134033203124999
-0.0677490234375
-0.06005859374999999
-0.05035400390625
-0.0450439453125
-0.0399169921875
-0.044677734375
-0.03973388671874999
-0.04541015625
-0.03918457031249999
-0.026916503906249997
-0.0252685546875
-0.03222656249999999
-0.0347900390625
-0.02655029296875
-0.018310546875
-0.00933837890625
-0.00036621093749999995
0.0010986328125
-0.0034790039062499996
-0.0142822265625
-0.0113525390625
-0.0029296874999999996
0.00567626953125
0.0113525390625
0.01190185546875
0.013916015624999998
0.015197753906249998
0.0201416015625
0.019592285156249997
0.029296875
0.044677734375
0.03607177734375
0.04925537109374999
0.05003356933593749
0.05639648437499999
0.05291748046875
0.06024169921875
0.061889648437499986
0.0633544921875
0.0714111328125
0.07855224609375
0.0845947265625
0.08807373046875
0.090087890625
0.10107421875
0.122314453125
0.11810302734375
0.11645507812499999
0.11993408203125
0.13092041015625
0.13494873046875
0.1307373046875
0.14978027343749997
0.15893554687499997
0.15527343749999997
0.15618896484374997
0.15527343749999997
0.172119140625
0.17999267578125
0.177978515625
0.17907714843749997
0.18090820312499997
0.179443359375
0.18402099609375
0.18896484375
0.18292236328125
0.1929931640625
0.1944580078125
0.19134521484375
0.20397949218749997
0.202880859375
0.19702148437499997
0.19573974609375
0.19097900390624997
0.18237304687499997
0.176513671875
0.17193603515624997
0.15820312499999997
0.14758300781249997
0.1322021484375
0.11132812499999999
0.09796142578125
0.08514404296875
0.06536865234375
0.0472412109375
0.024536132812499997
0.01007080078125
-0.0047607421875
-0.02197265625
-0.04156494140624999
-0.05731201171874999
-0.0736083984375
-0.079833984375
-0.09173583984375
-0.10546875
-0.11059570312499999
-0.1160888671875
-0.12249755859374999
-0.125244140625
-0.13311767578125
-0.14007568359375
-0.14593505859375
-0.144287109375
-0.1468505859375
-0.15380859375
-0.16021728515625
-0.15765380859374997
-0.15362548828125
-0.15325927734375
-0.15179443359374997
-0.15362548828125
-0.15527343749999997
-0.15435791015624997
-0.15325927734375
-0.14556884765625
-0.14886474609374997
-0.144287109375
-0.1402130126953125
-0.1358642578125
-0.136962890625
-0.1395263671875
-0.13256835937499997
-0.1270751953125
-0.12451171875
-0.11993408203125
-0.12194824218749999
-0.12176513671875
-0.125244140625
-0.12011718749999999
-0.11883544921874999
-0.11810302734375
-0.11627197265625
-0.11645507812499999
-0.11151123046874999
-0.1083984375
-0.1083984375
-0.1109619140625
-0.11517333984374999
-0.1116943359375
-0.10510253906249999
-0.10766601562499999
-0.10491943359374999
-0.11077880859375
-0.11022949218749999
-0.10784912109375
-0.1025390625
-0.10327148437499999
-0.1021728515625
-0.09741210937499999
-0.09429931640625
-0.09667968749999999
-0.09503173828125
-0.08862304687499999
-0.087890625
-0.09301757812499999
-0.0970458984375
-0.09411621093749999
-0.09777832031249999
-0.09594726562499999
-0.09521484375
-0.0963134765625
-0.09741210937499999
-0.0926513671875
-0.0882568359375
-0.091552734375
-0.0882568359375
-0.087158203125
-0.08880615234375
-0.0889892578125
-0.08770751953124999
-0.08001708984375
-0.08020019531249999
-0.0823974609375
-0.08111572265625
-0.08642578125
-0.084228515625
-0.08129882812499999
-0.0823974609375
-0.0838623046875
-0.08056640625
-0.084228515625
-0.08587646484374999
-0.08221435546874999
-0.08184814453125
-0.08166503906249999
-0.08276367187499999
-0.08056640625
-0.0780029296875
-0.08020019531249999
-0.08093261718749999
-0.08020019531249999
-0.07818603515625
-0.08111572265625
-0.07891845703125
-0.075439453125
-0.07525634765624999
-0.07470703125
-0.0743408203125
-0.07397460937499999
-0.07177734375
-0.0677490234375
-0.06738281249999999
-0.0692138671875
-0.06976318359375
-0.0706787109375
-0.07269287109374999
-0.07470703125
-0.0699462890625
-0.06976318359375
-0.0728759765625
-0.07379150390624999
-0.071044921875
-0.0692138671875
-0.06884765625
-0.06646728515625
-0.06628417968749999
-0.0684814453125
-0.06903076171875
-0.0692138671875
-0.07159423828125
-0.066650390625
-0.0640411376953125
-0.06298828125
-0.06500244140625
-0.05987548828124999
-0.061889648437499986
-0.06500244140625
-0.06610107421875
-0.06317138671875
-0.0589599609375
-0.05731201171874999
-0.05364990234375
-0.052734375
-0.0509033203125
-0.05126953125
-0.052001953125
-0.05145263671875
-0.04998779296875
-0.05209350585937499
-0.0545654296875
-0.05548095703125
-0.05364990234375
-0.04595947265625
-0.04833984374999999
-0.0457763671875
-0.04687499999999999
-0.04559326171874999
-0.04632568359375
-0.04595947265625
-0.0472412109375
-0.04486083984375
-0.04266357421875
-0.047607421875
-0.04779052734374999
-0.0435791015625
-0.03955078124999999
-0.0435791015625
-0.04669189453125
-0.04669189453125
-0.04541015625
-0.0435791015625
-0.04962158203125
-0.05108642578125
-0.0498046875
-0.04907226562499999
-0.044677734375
-0.0421142578125
-0.043212890625
-0.04522705078124999
-0.0509033203125
-0.05603027343749999
-0.061889648437499986
-0.06079101562499999
-0.054931640625
-0.0494384765625
-0.047607421875
-0.04339599609375
-0.03222656249999999
-0.01739501953125
0.0018310546875
0.00823974609375
0.0157470703125
0.018493652343749997
0.015197753906249998
0.0113525390625
0.012451171875
0.01739501953125
0.019592285156249997
0.020690917968749997
0.017578125
0.0128173828125
0.00787353515625
0.00018310546874999997
-0.0014648437499999998
0.0054931640625
0.00897216796875
0.004211425781249999
-0.0029296874999999996
-0.00714111328125
-0.0106201171875
-0.012451171875
-0.01318359375
-0.011535644531249998
-0.010253906249999998
-0.0091552734375
-0.00823974609375
-0.012451171875
-0.0146484375
-0.016845703124999997
-0.013366699218749998
-0.015014648437499998
-0.0135498046875
-0.0128173828125
-0.00732421875
-0.005859374999999999
-0.00640869140625
-0.010253906249999998
-0.012084960937499998
-0.013366699218749998
-0.01904296875
-0.022155761718749997
-0.02142333984375
-0.01776123046875
-0.01629638671875
-0.0172119140625
-0.020324707031249997
-0.0252685546875
-0.0263671875
-0.024169921874999997
-0.01739501953125
-0.0135498046875
-0.013366699218749998
-0.01300048828125
-0.01812744140625
-0.024169921874999997
-0.02197265625
-0.012268066406249998
-0.00732421875
-0.0029296874999999996
0.0012817382812499998
0.00091552734375
-0.0076904296875
-0.013916015624999998
-0.023437499999999997
-0.04431152343749999
-0.0714111328125
-0.0875244140625
-0.08093261718749999
-0.03955078124999999
0.0113525390625
0.05950927734375
0.12890624999999997
0.26806640624999994
0.45263671874999994
0.668701171875
0.86151123046875
1.056884765625
1.2392578125
1.4040527343749998
1.46502685546875
1.4739990234375
1.4681396484375
1.3121337890625
0.8756103515624999
0.34149169921875
-0.2149658203125
-0.5830078125
-0.7115478515625
-0.69305419921875
-0.6068115234374999
-0.50042724609375
-0.40264892578124994
-0.31402587890625
-0.23767089843749997
-0.17468261718749997
-0.1380615234375
-0.1190185546875
-0.1116943359375
-0.10528564453125
-0.1021728515625
-0.10491943359374999
-0.1058349609375
-0.10675048828125
-0.1072998046875
-0.10400390625
-0.104736328125
-0.10510253906249999
-0.10784912109375
-0.11004638671875
-0.1116943359375
-0.11041259765625
-0.1043701171875
-0.09777832031249999
-0.09594726562499999
-0.09411621093749999
-0.08734130859374999
-0.08020019531249999
-0.07562255859374999
-0.0692138671875
-0.06939697265625
-0.06866455078125
-0.06445312499999999
-0.061889648437499986
-0.0615234375
-0.05859375
-0.05914306640624999
-0.05383300781249999
-0.04541015625
-0.04101562499999999
-0.04010009765624999
-0.03790283203124999
-0.03662109375
-0.03570556640625
-0.028747558593750003
-0.024536132812499997
-0.020874023437499997
-0.01776123046875
-0.018310546875
-0.017028808593749997
-0.01666259765625
-0.015014648437499998
-0.01263427734375
-0.013366699218749998
-0.011718749999999998
-0.00787353515625
-0.00457763671875
-0.002197265625
0.0029296874999999996
0.014099121093749998
0.02197265625
0.020324707031249997
0.021240234375
0.024169921874999997
0.026733398437499997
0.024353027343749997
0.0289306640625
0.03424072265625
0.04138183593749999
0.04797363281249999
0.05364990234375
0.06280517578125
0.07177734375
0.0787353515625
0.08111572265625
0.08367919921875
0.0853271484375
0.0908203125
0.09246826171875
0.1014404296875
0.10766601562499999
0.10986328125
0.11572265625
0.119384765625
0.12249755859374999
0.12725830078125
0.1300048828125
0.13623046874999997
0.15051269531249997
0.1614990234375
0.16973876953125
0.17669677734375
0.18310546875
0.1834716796875
0.18457031249999997
0.1856689453125
0.18951416015625
0.19171142578125
0.19647216796875
0.20050048828125
0.19464111328124997
0.19244384765624997
0.1929931640625
0.19555664062499997
0.20068359375
0.20562744140625
0.20928955078125
0.208740234375
0.19976806640624997
0.194091796875
0.19317626953125
0.19335937499999997
0.192626953125
0.18749999999999997
0.17834472656249997
0.16552734374999997
0.15161132812499997
0.1387939453125
0.120849609375
0.09667968749999999
0.07525634765624999
0.05364990234375
0.03405761718749999
0.014831542968750002
-0.00567626953125
-0.02288818359375
-0.04266357421875
-0.05822753906249999
-0.07580566406249999
-0.09594726562499999
-0.11059570312499999
-0.12103271484374997
-0.1318359375
-0.1373291015625
-0.1409912109375
-0.14849853515625
-0.16204833984375
-0.17138671875
-0.17431640625
-0.17578125
-0.1787109375
-0.18402099609375
-0.18200683593749997
-0.176513671875
-0.18200683593749997
-0.18878173828125
-0.19024658203125
-0.186767578125
-0.18731689453124997
-0.19024658203125
-0.1907958984375
-0.18823242187499997
-0.1915283203125
-0.19024658203125
-0.1849365234375
-0.18988037109374997
-0.18402099609375
-0.1702880859375
-0.16699218749999997
-0.17156982421875
-0.17193603515624997
-0.17138671875
-0.16809082031249997
-0.16625976562499997
-0.1611328125
-0.14739990234375
-0.12835693359374997
-0.11993408203125
-0.1292724609375
-0.13421630859375003
-0.13256835937499997
-0.13055419921875003
-0.12652587890625
-0.120849609375
-0.119384765625
-0.11499023437500001
-0.10894775390625
-0.10400390625
-0.1058349609375
-0.11077880859375
-0.1171875
-0.11700439453124999
-0.12011718749999999
-0.1204833984375
-0.11517333984374999
-0.10675048828125
-0.1025390625
-0.1029052734375
-0.10949707031249999
-0.10784912109375
-0.1029052734375
-0.09558105468749999
-0.100341796875
-0.106201171875
-0.1065673828125
-0.10638427734374999
-0.10107421875
-0.09576416015625
-0.09686279296874999
-0.09851074218749999
-0.098876953125
-0.09136962890625
-0.08148193359375
-0.06555175781249999
-0.05914306640624999
-0.0589599609375
-0.05712890625
-0.05767822265625
-0.05712890625
-0.0589599609375
-0.05712890625
-0.05328369140625
-0.04870605468749999
-0.04650878906249999
-0.04339599609375
-0.04229736328125
-0.0450439453125
-0.0439453125
-0.0472412109375
-0.04174804687499999
-0.04010009765624999
-0.04101562499999999
-0.04522705078124999
-0.04156494140624999
-0.0347900390625
-0.0333251953125
-0.04248046875
-0.04339599609375
-0.04522705078124999
-0.0377197265625
-0.03662109375
-0.04010009765624999
-0.04064941406249999
-0.03680419921875
-0.03790283203124999
-0.03863525390625
-0.0347900390625
-0.03973388671874999
-0.04779052734374999
-0.044677734375
-0.0439453125
-0.0384521484375
-0.030029296874999997
-0.01885986328125
-0.00677490234375
-0.0014648437499999998
-0.00311279296875
-0.0007324218749999999
0.0054931640625
0.0
-0.00823974609375
-0.0164794921875
-0.019409179687499997
-0.006958007812499999
0.0018310546875
0.012084960937499998
0.025634765625
0.022705078125
0.01318359375
0.00531005859375
0.0018310546875
0.00933837890625
0.017028808593749997
0.024536132812499997
0.0146484375
0.0029296874999999996
0.00457763671875
0.00732421875
0.00457763671875
0.00714111328125
0.01080322265625
0.004943847656249999
0.00933837890625
0.018493652343749997
0.02490234375
0.01904296875
0.01922607421875
0.02142333984375
0.020507812499999997
0.03955078124999999
0.05328369140625
0.05255126953124999
0.04486083984375
0.03863525390625
0.029296875
0.0260009765625
0.02545166015625
0.027832031249999997
0.04010009765624999
0.04449462890625
0.052734375
0.06005859374999999
0.06811523437499999
0.0845947265625
0.09356689453125
0.09667968749999999
0.087890625
0.0838623046875
0.08880615234375
0.09851074218749999
0.1007080078125
0.10968017578125
0.11004638671875
0.10766601562499999
0.10400390625
0.09667968749999999
0.08843994140624999
0.08001708984375
0.07159423828125
0.05639648437499999
0.0457763671875
0.04174804687499999
0.0428466796875
0.05072021484375
0.05438232421874999
0.04833984374999999
0.04522705078124999
0.05163574218749999
0.05603027343749999
0.05511474609374999
0.0498046875
0.04339599609375
0.03570556640625
0.027832031249999997
0.021240234375
0.0172119140625
0.015014648437499998
0.019592285156249997
0.01666259765625
0.02728271484375
0.03387451171875
0.032958984375
0.04101562499999999
0.05346679687499999
0.0567626953125
0.05877685546875
0.04888916015624999
0.04101562499999999
0.0380859375
0.029296875
0.019592285156249997
0.0135498046875
0.009521484375
0.0135498046875
0.020874023437499997
0.0333251953125
0.044677734375
0.03570556640625
0.02947998046875
0.03900146484375
0.040283203125
0.0347900390625
0.03369140624999999
0.022705078125
0.0106201171875
-0.0091552734375
-0.025817871093749997
-0.05474853515624999
-0.08917236328124999
-0.0970458984375
-0.0703125
-0.01885986328125
0.03881835937499999
0.08935546875
0.18731689453124997
0.3511962890625
0.5650634765625
0.78021240234375
0.9818115234374999
1.18212890625
1.3582763671874998
1.43353271484375
1.4472656249999998
1.44287109375
1.43408203125
1.2383422851562498
0.731689453125
0.12396240234375001
-0.42077636718749994
-0.6904907226562499
-0.7413940429687499
-0.68243408203125
-0.5687255859375
-0.46179199218750006
-0.3717041015625
-0.27685546875
-0.1842041015625
-0.11883544921874999
-0.09429931640625
-0.09301757812499999
-0.0875244140625
-0.08074951171875
-0.087890625
-0.091552734375
-0.0867919921875
-0.09411621093749999
-0.09777832031249999
-0.09667968749999999
-0.09210205078125
-0.08642578125
-0.084228515625
-0.0860595703125
-0.09173583984375
-0.08148193359375
-0.07342529296875
-0.07159423828125
-0.07342529296875
-0.0732421875
-0.0706787109375
-0.07086181640624999
-0.0692138671875
-0.06573486328125
-0.06170654296874999
-0.05621337890624999
-0.0498046875
-0.037353515625
-0.0252685546875
-0.012268066406249998
-0.00457763671875
-0.00439453125
-0.011718749999999998
-0.019592285156249997
-0.02471923828125
-0.0252685546875
-0.01995849609375
-0.010253906249999998
-0.005126953124999999
-0.0032958984375
0.0010986328125
0.002197265625
0.00640869140625
0.010986328125
0.009521484375
0.016113281249999997
0.01776123046875
0.01556396484375
0.012451171875
0.01666259765625
0.018493652343749997
0.017578125
0.0164794921875
0.00860595703125
0.004943847656249999
0.01776123046875
0.03973388671874999
0.04083251953124999
0.04486083984375
0.06701660156249999
0.07855224609375
0.08294677734375
0.07598876953125
0.075439453125
0.07946777343749999
0.0845947265625
0.08587646484374999
0.08660888671874999
0.0889892578125
0.08770751953124999
0.08642578125
0.0875244140625
0.09246826171875
0.10400390625
0.10711669921875
0.11041259765625
0.11645507812499999
0.122314453125
0.1318359375
0.13824462890625
0.135498046875
0.13476562499999997
0.138427734375
0.14154052734374997
0.13201904296875
0.113525390625
0.11480712890625
0.12451171875
0.15179443359374997
0.1907958984375
0.21551513671875
0.21917724609374997
0.21386718749999997
0.19903564453125
0.1849365234375
0.17980957031249997
0.179443359375
0.18182373046874997
0.181640625
0.1812744140625
0.18035888671875
0.18896484375
0.19573974609375
0.19757080078124997
0.18969726562499997
0.1834716796875
0.1728515625
0.14794921874999997
0.1263427734375
0.1065673828125
0.07946777343749999
0.06976318359375
0.05566406249999999
0.03863525390625
0.0252685546875
0.0106201171875
-0.00238037109375
-0.006958007812499999
-0.015197753906249998
-0.027648925781249997
-0.03973388671874999
-0.05712890625
-0.07342529296875
-0.09100341796874999
-0.1065673828125
-0.12286376953125
-0.1373291015625
-0.14538574218749997
-0.15069580078125
-0.146484375
-0.14666748046874997
-0.15216064453125
-0.15161132812499997
-0.1468505859375
-0.13751220703124997
-0.12249755859374999
-0.12762451171874997
-0.14245605468749997
-0.15216064453125
-0.1600341796875
-0.16168212890624997
-0.16534423828124997
-0.16699218749999997
-0.16442871093749997
-0.1614990234375
-0.1468505859375
-0.14447021484375
-0.14611816406249997
-0.14959716796875
-0.14904785156249997
-0.14923095703125
-0.15087890625
-0.14117431640624997
-0.13311767578125
-0.13238525390625
-0.13623046874999997
-0.13970947265625
-0.1468505859375
-0.14794921874999997
-0.14776611328125
-0.14666748046874997
-0.14245605468749997
-0.12451171875
-0.10400390625
-0.0970458984375
-0.1029052734375
-0.1014404296875
-0.0933837890625
-0.085693359375
-0.085693359375
-0.08953857421874999
-0.09539794921875
-0.1021728515625
-0.1025390625
-0.09814453124999999
-0.0992431640625
-0.0999755859375
-0.10601806640624999
-0.1080322265625
-0.10528564453125
-0.100341796875
-0.09484863281249999
-0.08917236328124999
-0.08935546875
-0.09576416015625
-0.09814453124999999
-0.09814453124999999
-0.08990478515624999
-0.08917236328124999
-0.09374999999999999
-0.087158203125
-0.07415771484375
-0.061889648437499986
-0.05841064453125001
-0.05511474609374999
-0.05712890625
-0.05712890625
-0.05181884765625
-0.04870605468749999
-0.05419921875
-0.0567626953125
-0.05987548828124999
-0.05712890625
-0.05694580078124999
-0.05932617187500001
-0.05859375
-0.05767822265625
-0.05529785156249999
-0.0545654296875
-0.05346679687499999
-0.05035400390625
-0.0457763671875
-0.04705810546874999
-0.054931640625
-0.05804443359375
-0.05603027343749999
-0.06390380859375
-0.0706787109375
-0.07232666015625
-0.06353759765625
-0.052001953125
-0.03936767578125
-0.0325927734375
-0.0457763671875
-0.05712890625
-0.04742431640624999
-0.03405761718749999
-0.034423828125
-0.03881835937499999
-0.04998779296875
-0.05859375
-0.05419921875
-0.04815673828125
-0.04632568359375
-0.0428466796875
-0.03955078124999999
-0.03222656249999999
-0.03424072265625
-0.03881835937499999
-0.04083251953124999
-0.044677734375
-0.05035400390625
-0.0509033203125
-0.05145263671875
-0.0498046875
-0.04248046875
-0.04046630859374999
-0.0450439453125
-0.05108642578125
-0.0567626953125
-0.0626220703125
-0.06445312499999999
-0.062255859375
-0.05383300781249999
-0.04174804687499999
-0.029663085937500003
-0.0007324218749999999
0.023071289062499997
0.0179443359375
0.01007080078125
0.003662109375
-0.010986328125
-0.0238037109375
-0.0263671875
-0.01739501953125
-0.00897216796875
-0.0025634765624999996
0.00054931640625
0.006958007812499999
0.0274658203125
0.04431152343749999
0.04669189453125
0.04925537109374999
0.044677734375
0.03900146484375
0.03717041015625
0.035888671875
0.03497314453125
0.0311279296875
0.03369140624999999
0.04486083984375
0.05712890625
0.05145263671875
0.0325927734375
0.024169921874999997
0.023254394531249997
0.01776123046875
0.02197265625
0.015380859375
0.0164794921875
0.012451171875
0.00640869140625
0.009887695312499998
0.0157470703125
0.02362060546875
0.02197265625
0.020324707031249997
0.0164794921875
0.010986328125
0.006958007812499999
0.0029296874999999996
0.004028320312499999
-0.00036621093749999995
-0.006958007812499999
-0.012451171875
-0.020507812499999997
-0.020874023437499997
-0.017578125
-0.019775390624999997
-0.015014648437499998
0.0062255859375
0.020324707031249997
0.023071289062499997
-0.00036621093749999995
-0.00677490234375
-0.005859374999999999
-0.0087890625
-0.008056640624999998
-0.0087890625
-0.014099121093749998
0.0007324218749999999
0.026733398437499997
0.04064941406249999
0.0435791015625
0.04101562499999999
0.03424072265625
0.0252685546875
0.020507812499999997
0.02142333984375
0.018493652343749997
0.010253906249999998
0.00823974609375
0.0029296874999999996
0.002197265625
0.00054931640625
-0.01300048828125
-0.03955078124999999
-0.06628417968749999
-0.07562255859374999
-0.052734375
0.0
0.0509033203125
0.109130859375
0.22045898437499997
0.38745117187499994
0.60223388671875
0.797607421875
0.9858398437500001
1.1638183593749998
1.3447265624999998
1.41778564453125
1.4315185546874998
1.4278564453125
1.4179687499999998
1.2861328124999998
0.79998779296875
0.208740234375
-0.32098388671874994
-0.609100341796875
-0.67694091796875
-0.6119384765624999
-0.50408935546875
-0.40338134765625
-0.32153320312499994
-0.2457275390625
-0.1827392578125
-0.1483154296875
-0.13018798828124997
-0.1171875
-0.11499023437500001
-0.11224365234375
-0.10510253906249999
-0.1058349609375
-0.11389160156249999
-0.11462402343749999
-0.11682128906250001
-0.125244140625
-0.13421630859375003
-0.13238525390625
-0.13494873046875
-0.14080810546875
-0.14758300781249997
-0.1435546875
-0.11828613281249999
-0.08367919921875
-0.054931640625
-0.03826904296874999
-0.04797363281249999
-0.05126953125
-0.05383300781249999
-0.05804443359375
-0.06005859374999999
-0.06573486328125
-0.07946777343749999
-0.0823974609375
-0.08349609374999999
-0.07946777343749999
-0.08148193359375
-0.07672119140625
-0.06500244140625
-0.03918457031249999
-0.01080322265625
-0.0014648437499999998
-0.0087890625
-0.01629638671875
-0.02362060546875
-0.025817871093749997
-0.0263671875
-0.028015136718749997
-0.0263671875
-0.02655029296875
-0.0263671875
-0.02508544921875
-0.025634765625
-0.02288818359375
-0.01922607421875
-0.017578125
-0.017028808593749997
-0.017578125
-0.004028320312499999
0.005126953124999999
0.02288818359375
0.03057861328125
0.03240966796875
0.0377197265625
0.0362548828125
0.03057861328125
0.0238037109375
0.027832031249999997
0.02838134765625
0.0377197265625
0.0494384765625
0.05603027343749999
0.04815673828125
0.04797363281249999
0.0457763671875
0.0472412109375
0.06005859374999999
0.09027099609374999
0.09484863281249999
0.0992431640625
0.09686279296874999
0.10766601562499999
0.1190185546875
0.13385009765624997
0.154541015625
0.1614990234375
0.1622314453125
0.15728759765625
0.15380859375
0.1541748046875
0.15142822265625
0.15618896484374997
0.15399169921874997
0.1549072265625
0.1629638671875
0.16831970214843747
0.17376708984375
0.175048828125
0.1827392578125
0.18548583984374997
0.18914794921874997
0.18218994140625
0.17541503906249997
0.167724609375
0.16406249999999997
0.16809082031249997
0.16186523437499997
0.16461181640624997
0.1710205078125
0.1878662109375
0.198486328125
0.20251464843749997
0.20269775390624997
0.18749999999999997
0.18292236328125
0.17230224609375
0.14904785156249997
0.12176513671875
0.09667968749999999
0.0787353515625
0.0615234375
0.0380859375
0.022155761718749997
0.0034790039062499996
-0.0186767578125
-0.030029296874999997
-0.04742431640624999
-0.07177734375
-0.094482421875
-0.10089111328125
-0.09851074218749999
-0.106201171875
-0.11444091796875
-0.11846923828124999
-0.11370849609374999
-0.09777832031249999
-0.0845947265625
-0.08843994140624999
-0.09942626953124999
-0.10894775390625
-0.11059570312499999
-0.1175537109375
-0.12799072265625
-0.1263427734375
-0.12615966796874997
-0.10986328125
-0.09851074218749999
-0.10198974609374999
-0.10894775390625
-0.12011718749999999
-0.12451171875
-0.12414550781250001
-0.1190185546875
-0.11975097656249999
-0.11993408203125
-0.11590576171875
-0.10565185546874999
-0.09851074218749999
-0.085693359375
-0.076171875
-0.0736083984375
-0.076904296875
-0.0908203125
-0.0882568359375
-0.08551025390625
-0.08770751953124999
-0.08642578125
-0.09246826171875
-0.09777832031249999
-0.09851074218749999
-0.0926513671875
-0.08551025390625
-0.08129882812499999
-0.07708740234375
-0.0703125
-0.05749511718750001
-0.04870605468749999
-0.05181884765625
-0.0531005859375
-0.0589599609375
-0.06573486328125
-0.06738281249999999
-0.071044921875
-0.0732421875
-0.06811523437499999
-0.07196044921874999
-0.07159423828125
-0.06738281249999999
-0.06555175781249999
-0.06353759765625
-0.0699462890625
-0.0714111328125
-0.0706787109375
-0.06628417968749999
-0.05639648437499999
-0.04779052734374999
-0.03167724609375
-0.0263671875
-0.0260009765625
-0.03662109375
-0.04541015625
-0.0509033203125
-0.052734375
-0.0501708984375
-0.04888916015624999
-0.0494384765625
-0.0457763671875
-0.04376220703125
-0.0596923828125
-0.06610107421875
-0.07196044921874999
-0.07177734375
-0.0750732421875
-0.0772705078125
-0.08276367187499999
-0.07818603515625
-0.05603027343749999
-0.04888916015624999
-0.04064941406249999
-0.030944824218749993
-0.02178955078125
-0.00714111328125
-0.0029296874999999996
-0.01190185546875
-0.0238037109375
-0.02947998046875
-0.0333251953125
-0.03369140624999999
-0.028747558593750003
-0.03698730468749999
-0.03222656249999999
-0.022705078125
-0.02142333984375
-0.028015136718749997
-0.02838134765625
-0.03570556640625
-0.0435791015625
-0.05639648437499999
-0.05328369140625
-0.05419921875
-0.04064941406249999
-0.027648925781249997
-0.029113769531249997
-0.040283203125
-0.03753662109375
-0.01300048828125
0.00384521484375
0.0
-0.0076904296875
-0.02178955078125
-0.032958984375
-0.04595947265625
-0.05364990234375
-0.052001953125
-0.03021240234375
-0.0014648437499999998
0.019775390624999997
0.022155761718749997
0.019592285156249997
0.012084960937499998
0.012084960937499998
0.0106201171875
0.004211425781249999
-0.00640869140625
-0.01080322265625
-0.01318359375
-0.018310546875
-0.020324707031249997
-0.01300048828125
-0.00036621093749999995
-0.0014648437499999998
-0.006591796875
-0.0172119140625
-0.019775390624999997
-0.010253906249999998
-0.00531005859375
